# Gaussian folded, width=10 cm^-1
# [cm^-1] arbitrary
0.000      3.00000e+00
1.000      2.91796e+00
2.000      2.68508e+00
3.000      2.33749e+00
4.000      1.92514e+00
5.000      1.50000e+00
6.000      1.10570e+00
7.000      7.71085e-01
8.000      5.08727e-01
9.000      3.17529e-01
10.000      1.87500e-01
11.000      1.04746e-01
12.000      5.53590e-02
13.000      2.76795e-02
14.000      1.30932e-02
15.000      5.85941e-03
16.000      2.48085e-03
17.000      9.94166e-04
18.000      3.78512e-04
19.000      1.41793e-04
20.000      6.77560e-05
21.000      8.18443e-05
22.000      1.98996e-04
23.000      5.35628e-04
24.000      1.39227e-03
25.000      3.43916e-03
26.000      8.06064e-03
27.000      1.79253e-02
28.000      3.78271e-02
29.000      7.57611e-02
30.000      1.44034e-01
31.000      2.59968e-01
32.000      4.45532e-01
33.000      7.25100e-01
34.000      1.12081e+00
35.000      1.64562e+00
36.000      2.29528e+00
37.000      3.04145e+00
38.000      3.82907e+00
39.000      4.58031e+00
40.000      5.20587e+00
41.000      5.62199e+00
42.000      5.76870e+00
43.000      5.62395e+00
44.000      5.20902e+00
45.000      4.58342e+00
46.000      3.83093e+00
47.000      3.04128e+00
48.000      2.29297e+00
49.000      1.64166e+00
50.000      1.11607e+00
51.000      7.20623e-01
52.000      4.42478e-01
53.000      2.59850e-01
54.000      1.49397e-01
55.000      9.14243e-02
56.000      7.28410e-02
57.000      8.83821e-02
58.000      1.40726e-01
59.000      2.39847e-01
60.000      4.01557e-01
61.000      6.44876e-01
62.000      9.87943e-01
63.000      1.44251e+00
64.000      2.00778e+00
65.000      2.66507e+00
66.000      3.37507e+00
67.000      4.07944e+00
68.000      4.70748e+00
69.000      5.18715e+00
70.000      5.45826e+00
71.000      5.48467e+00
72.000      5.26202e+00
73.000      4.81898e+00
74.000      4.21134e+00
75.000      3.51071e+00
76.000      2.79098e+00
77.000      2.11608e+00
78.000      1.53201e+00
79.000      1.06439e+00
80.000      7.21165e-01
81.000      4.98775e-01
82.000      3.89351e-01
83.000      3.86866e-01
84.000      4.90615e-01
85.000      7.05274e-01
86.000      1.03756e+00
87.000      1.49039e+00
88.000      2.05601e+00
89.000      2.71027e+00
90.000      3.41012e+00
91.000      4.09584e+00
92.000      4.69829e+00
93.000      5.15017e+00
94.000      5.39850e+00
95.000      5.41554e+00
96.000      5.20533e+00
97.000      4.80442e+00
98.000      4.27691e+00
99.000      3.70525e+00
100.000      3.17905e+00
101.000      2.78410e+00
102.000      2.59332e+00
103.000      2.66019e+00
104.000      3.01468e+00
105.000      3.66132e+00
106.000      4.57906e+00
107.000      5.72302e+00
108.000      7.02830e+00
109.000      8.41576e+00
110.000      9.79932e+00
111.000      1.10940e+01
112.000      1.22231e+01
113.000      1.31247e+01
114.000      1.37553e+01
115.000      1.40926e+01
116.000      1.41355e+01
117.000      1.39031e+01
118.000      1.34314e+01
119.000      1.27686e+01
120.000      1.19699e+01
121.000      1.10911e+01
122.000      1.01835e+01
123.000      9.29029e+00
124.000      8.44443e+00
125.000      7.66872e+00
126.000      6.97752e+00
127.000      6.37962e+00
128.000      5.88133e+00
129.000      5.48925e+00
130.000      5.21176e+00
131.000      5.05906e+00
132.000      5.04172e+00
133.000      5.16799e+00
134.000      5.44064e+00
135.000      5.85364e+00
136.000      6.38982e+00
137.000      7.02000e+00
138.000      7.70447e+00
139.000      8.39717e+00
140.000      9.05193e+00
141.000      9.62972e+00
142.000      1.01049e+01
143.000      1.04685e+01
144.000      1.07284e+01
145.000      1.09049e+01
146.000      1.10249e+01
147.000      1.11155e+01
148.000      1.11996e+01
149.000      1.12929e+01
150.000      1.14041e+01
151.000      1.15358e+01
152.000      1.16861e+01
153.000      1.18496e+01
154.000      1.20179e+01
155.000      1.21806e+01
156.000      1.23265e+01
157.000      1.24451e+01
158.000      1.25281e+01
159.000      1.25695e+01
160.000      1.25650e+01
161.000      1.25106e+01
162.000      1.24003e+01
163.000      1.22254e+01
164.000      1.19741e+01
165.000      1.16336e+01
166.000      1.11938e+01
167.000      1.06521e+01
168.000      1.00187e+01
169.000      9.32076e+00
170.000      8.60195e+00
171.000      7.91823e+00
172.000      7.32844e+00
173.000      6.88291e+00
174.000      6.61319e+00
175.000      6.52640e+00
176.000      6.60587e+00
177.000      6.81760e+00
178.000      7.11960e+00
179.000      7.47100e+00
180.000      7.83799e+00
181.000      8.19596e+00
182.000      8.52848e+00
183.000      8.82504e+00
184.000      9.07904e+00
185.000      9.28679e+00
186.000      9.44731e+00
187.000      9.56230e+00
188.000      9.63551e+00
189.000      9.67162e+00
190.000      9.67480e+00
191.000      9.64775e+00
192.000      9.59167e+00
193.000      9.50740e+00
194.000      9.39737e+00
195.000      9.26765e+00
196.000      9.12896e+00
197.000      8.99600e+00
198.000      8.88462e+00
199.000      8.80758e+00
200.000      8.77010e+00
201.000      8.76707e+00
202.000      8.78308e+00
203.000      8.79565e+00
204.000      8.78044e+00
205.000      8.71678e+00
206.000      8.59150e+00
207.000      8.40026e+00
208.000      8.14641e+00
209.000      7.83891e+00
210.000      7.49057e+00
211.000      7.11773e+00
212.000      6.74098e+00
213.000      6.38597e+00
214.000      6.08261e+00
215.000      5.86194e+00
216.000      5.75045e+00
217.000      5.76354e+00
218.000      5.90025e+00
219.000      6.14137e+00
220.000      6.45253e+00
221.000      6.79161e+00
222.000      7.11858e+00
223.000      7.40442e+00
224.000      7.63597e+00
225.000      7.81505e+00
226.000      7.95244e+00
227.000      8.05918e+00
228.000      8.13933e+00
229.000      8.18700e+00
230.000      8.18929e+00
231.000      8.13366e+00
232.000      8.01666e+00
233.000      7.85012e+00
234.000      7.66185e+00
235.000      7.49025e+00
236.000      7.37428e+00
237.000      7.34222e+00
238.000      7.40302e+00
239.000      7.54297e+00
240.000      7.72871e+00
241.000      7.91557e+00
242.000      8.05854e+00
243.000      8.12266e+00
244.000      8.09007e+00
245.000      7.96213e+00
246.000      7.75690e+00
247.000      7.50341e+00
248.000      7.23486e+00
249.000      6.98269e+00
250.000      6.77226e+00
251.000      6.62059e+00
252.000      6.53532e+00
253.000      6.51487e+00
254.000      6.54941e+00
255.000      6.62280e+00
256.000      6.71557e+00
257.000      6.80823e+00
258.000      6.88431e+00
259.000      6.93203e+00
260.000      6.94443e+00
261.000      6.91809e+00
262.000      6.85159e+00
263.000      6.74477e+00
264.000      6.59919e+00
265.000      6.41951e+00
266.000      6.21464e+00
267.000      5.99740e+00
268.000      5.78199e+00
269.000      5.57974e+00
270.000      5.39470e+00
271.000      5.22098e+00
272.000      5.04376e+00
273.000      4.84420e+00
274.000      4.60729e+00
275.000      4.33018e+00
276.000      4.02779e+00
277.000      3.73365e+00
278.000      3.49490e+00
279.000      3.36296e+00
280.000      3.38251e+00
281.000      3.58177e+00
282.000      3.96660e+00
283.000      4.51907e+00
284.000      5.20004e+00
285.000      5.95455e+00
286.000      6.71899e+00
287.000      7.42923e+00
288.000      8.02939e+00
289.000      8.48041e+00
290.000      8.76681e+00
291.000      8.90006e+00
292.000      8.91675e+00
293.000      8.87179e+00
294.000      8.82752e+00
295.000      8.84152e+00
296.000      8.95563e+00
297.000      9.18831e+00
298.000      9.53187e+00
299.000      9.95454e+00
300.000      1.04071e+01
301.000      1.08331e+01
302.000      1.11799e+01
303.000      1.14095e+01
304.000      1.15058e+01
305.000      1.14767e+01
306.000      1.13509e+01
307.000      1.11692e+01
308.000      1.09747e+01
309.000      1.08019e+01
310.000      1.06700e+01
311.000      1.05802e+01
312.000      1.05182e+01
313.000      1.04613e+01
314.000      1.03869e+01
315.000      1.02811e+01
316.000      1.01447e+01
317.000      9.99537e+00
318.000      9.86463e+00
319.000      9.79234e+00
320.000      9.81912e+00
321.000      9.97947e+00
322.000      1.02968e+01
323.000      1.07806e+01
324.000      1.14255e+01
325.000      1.22102e+01
326.000      1.30979e+01
327.000      1.40369e+01
328.000      1.49635e+01
329.000      1.58088e+01
330.000      1.65083e+01
331.000      1.70118e+01
332.000      1.72932e+01
333.000      1.73545e+01
334.000      1.72251e+01
335.000      1.69542e+01
336.000      1.66021e+01
337.000      1.62299e+01
338.000      1.58930e+01
339.000      1.56376e+01
340.000      1.55001e+01
341.000      1.55082e+01
342.000      1.56814e+01
343.000      1.60299e+01
344.000      1.65531e+01
345.000      1.72380e+01
346.000      1.80597e+01
347.000      1.89847e+01
348.000      1.99757e+01
349.000      2.09975e+01
350.000      2.20209e+01
351.000      2.30242e+01
352.000      2.39893e+01
353.000      2.48969e+01
354.000      2.57198e+01
355.000      2.64196e+01
356.000      2.69471e+01
357.000      2.72483e+01
358.000      2.72746e+01
359.000      2.69941e+01
360.000      2.64003e+01
361.000      2.55162e+01
362.000      2.43909e+01
363.000      2.30906e+01
364.000      2.16855e+01
365.000      2.02373e+01
366.000      1.87907e+01
367.000      1.73708e+01
368.000      1.59871e+01
369.000      1.46409e+01
370.000      1.33352e+01
371.000      1.20814e+01
372.000      1.09030e+01
373.000      9.83410e+00
374.000      8.91539e+00
375.000      8.18805e+00
376.000      7.68871e+00
377.000      7.44609e+00
378.000      7.47986e+00
379.000      7.80140e+00
380.000      8.41507e+00
381.000      9.31866e+00
382.000      1.05017e+01
383.000      1.19411e+01
384.000      1.35950e+01
385.000      1.53956e+01
386.000      1.72448e+01
387.000      1.90140e+01
388.000      2.05506e+01
389.000      2.16915e+01
390.000      2.22848e+01
391.000      2.22144e+01
392.000      2.14250e+01
393.000      1.99402e+01
394.000      1.78657e+01
395.000      1.53777e+01
396.000      1.26946e+01
397.000      1.00405e+01
398.000      7.60918e+00
399.000      5.53860e+00
400.000      3.89945e+00
401.000      2.69927e+00
402.000      1.89703e+00
403.000      1.42231e+00
404.000      1.19349e+00
405.000      1.13194e+00
406.000      1.17115e+00
407.000      1.26140e+00
408.000      1.37104e+00
409.000      1.48508e+00
410.000      1.60182e+00
411.000      1.72808e+00
412.000      1.87400e+00
413.000      2.04835e+00
414.000      2.25515e+00
415.000      2.49177e+00
416.000      2.74860e+00
417.000      3.00967e+00
418.000      3.25424e+00
419.000      3.45899e+00
420.000      3.60078e+00
421.000      3.65975e+00
422.000      3.62228e+00
423.000      3.48333e+00
424.000      3.24779e+00
425.000      2.93042e+00
426.000      2.55436e+00
427.000      2.14843e+00
428.000      1.74354e+00
429.000      1.36890e+00
430.000      1.04878e+00
431.000      8.00260e-01
432.000      6.32263e-01
433.000      5.45563e-01
434.000      5.33408e-01
435.000      5.82383e-01
436.000      6.73528e-01
437.000      7.83996e-01
438.000      8.89549e-01
439.000      9.67902e-01
440.000      1.00233e+00
441.000      9.84564e-01
442.000      9.15990e-01
443.000      8.06624e-01
444.000      6.72145e-01
445.000      5.29925e-01
446.000      3.95276e-01
447.000      2.78941e-01
448.000      1.86229e-01
449.000      1.17625e-01
450.000      7.02861e-02
451.000      3.97336e-02
452.000      2.12503e-02
453.000      1.07520e-02
454.000      5.14672e-03
455.000      2.33072e-03
456.000      9.98542e-04
457.000      4.04726e-04
458.000      1.55193e-04
459.000      5.62992e-05
460.000      1.93219e-05
461.000      6.27357e-06
462.000      1.92707e-06
463.000      5.60012e-07
464.000      1.53962e-07
465.000      4.00452e-08
466.000      9.85378e-09
467.000      2.29389e-09
468.000      5.05198e-10
469.000      1.05261e-10
470.000      2.07487e-11
471.000      3.86929e-12
472.000      6.82637e-13
473.000      1.13937e-13
474.000      1.79912e-14
475.000      2.68764e-15
476.000      3.79839e-16
477.000      5.07862e-17
478.000      6.42407e-18
479.000      7.68762e-19
480.000      8.70344e-20
481.000      9.32197e-21
482.000      9.44588e-22
483.000      9.05512e-23
484.000      8.21229e-24
485.000      7.04614e-25
486.000      5.71948e-26
487.000      4.39217e-27
488.000      3.19094e-28
489.000      2.19319e-29
490.000      1.42611e-30
491.000      8.77293e-32
492.000      5.10570e-33
493.000      2.81114e-34
494.000      1.46430e-35
495.000      7.21593e-37
496.000      3.36413e-38
497.000      1.48379e-39
498.000      6.19138e-41
499.000      2.44411e-42
500.000      9.12793e-44
