# Gaussian folded, width=10 cm^-1
# [cm^-1] arbitrary
0.000      3.00000e+00
1.000      2.91796e+00
2.000      2.68508e+00
3.000      2.33749e+00
4.000      1.92514e+00
5.000      1.50000e+00
6.000      1.10570e+00
7.000      7.71085e-01
8.000      5.08727e-01
9.000      3.17529e-01
10.000      1.87500e-01
11.000      1.04746e-01
12.000      5.53593e-02
13.000      2.76806e-02
14.000      1.30972e-02
15.000      5.87281e-03
16.000      2.52375e-03
17.000      1.12426e-03
18.000      7.51846e-04
19.000      1.15584e-03
20.000      2.67455e-03
21.000      6.42360e-03
22.000      1.47979e-02
23.000      3.23317e-02
24.000      6.68995e-02
25.000      1.31070e-01
26.000      2.43145e-01
27.000      4.27083e-01
28.000      7.10318e-01
29.000      1.11864e+00
30.000      1.66814e+00
31.000      2.35551e+00
32.000      3.14958e+00
33.000      3.98785e+00
34.000      4.78136e+00
35.000      5.42867e+00
36.000      5.83672e+00
37.000      5.94268e+00
38.000      5.72976e+00
39.000      5.23163e+00
40.000      4.52366e+00
41.000      3.70437e+00
42.000      2.87322e+00
43.000      2.11178e+00
44.000      1.47311e+00
45.000      9.80551e-01
46.000      6.34134e-01
47.000      4.21023e-01
48.000      3.26148e-01
49.000      3.40313e-01
50.000      4.64230e-01
51.000      7.07905e-01
52.000      1.08556e+00
53.000      1.60696e+00
54.000      2.26698e+00
55.000      3.03629e+00
56.000      3.85677e+00
57.000      4.64473e+00
58.000      5.30296e+00
59.000      5.73967e+00
60.000      5.88932e+00
61.000      5.72864e+00
62.000      5.28257e+00
63.000      4.61799e+00
64.000      3.82742e+00
65.000      3.00829e+00
66.000      2.24433e+00
67.000      1.59403e+00
68.000      1.08807e+00
69.000      7.34487e-01
70.000      5.28254e-01
71.000      4.61308e-01
72.000      5.29922e-01
73.000      7.37346e-01
74.000      1.09111e+00
75.000      1.59572e+00
76.000      2.24271e+00
77.000      3.00141e+00
78.000      3.81412e+00
79.000      4.59890e+00
80.000      5.26137e+00
81.000      5.71354e+00
82.000      5.89511e+00
83.000      5.79108e+00
84.000      5.44012e+00
85.000      4.93150e+00
86.000      4.39150e+00
87.000      3.96330e+00
88.000      3.78514e+00
89.000      3.97020e+00
90.000      4.59039e+00
91.000      5.66495e+00
92.000      7.15472e+00
93.000      8.96360e+00
94.000      1.09487e+01
95.000      1.29393e+01
96.000      1.47607e+01
97.000      1.62599e+01
98.000      1.73249e+01
99.000      1.78943e+01
100.000      1.79572e+01
101.000      1.75455e+01
102.000      1.67225e+01
103.000      1.55731e+01
104.000      1.41950e+01
105.000      1.26925e+01
106.000      1.11680e+01
107.000      9.71315e+00
108.000      8.39894e+00
109.000      7.26758e+00
110.000      6.33041e+00
111.000      5.57310e+00
112.000      4.96823e+00
113.000      4.49182e+00
114.000      4.13900e+00
115.000      3.93360e+00
116.000      3.92839e+00
117.000      4.19530e+00
118.000      4.80777e+00
119.000      5.81934e+00
120.000      7.24370e+00
121.000      9.04105e+00
122.000      1.11148e+01
123.000      1.33202e+01
124.000      1.54846e+01
125.000      1.74337e+01
126.000      1.90201e+01
127.000      2.01451e+01
128.000      2.07699e+01
129.000      2.09143e+01
130.000      2.06437e+01
131.000      2.00512e+01
132.000      1.92369e+01
133.000      1.82918e+01
134.000      1.72872e+01
135.000      1.62704e+01
136.000      1.52664e+01
137.000      1.42833e+01
138.000      1.33192e+01
139.000      1.23708e+01
140.000      1.14413e+01
141.000      1.05469e+01
142.000      9.71890e+00
143.000      9.00281e+00
144.000      8.45022e+00
145.000      8.10698e+00
146.000      7.99969e+00
147.000      8.12526e+00
148.000      8.44774e+00
149.000      8.90426e+00
150.000      9.41866e+00
151.000      9.91839e+00
152.000      1.03492e+01
153.000      1.06829e+01
154.000      1.09169e+01
155.000      1.10659e+01
156.000      1.11502e+01
157.000      1.11847e+01
158.000      1.11732e+01
159.000      1.11083e+01
160.000      1.09782e+01
161.000      1.07768e+01
162.000      1.05124e+01
163.000      1.02135e+01
164.000      9.92601e+00
165.000      9.70476e+00
166.000      9.59998e+00
167.000      9.64342e+00
168.000      9.83878e+00
169.000      1.01597e+01
170.000      1.05564e+01
171.000      1.09681e+01
172.000      1.13391e+01
173.000      1.16320e+01
174.000      1.18344e+01
175.000      1.19595e+01
176.000      1.20385e+01
177.000      1.21104e+01
178.000      1.22116e+01
179.000      1.23688e+01
180.000      1.25976e+01
181.000      1.29037e+01
182.000      1.32868e+01
183.000      1.37434e+01
184.000      1.42670e+01
185.000      1.48462e+01
186.000      1.54630e+01
187.000      1.60922e+01
188.000      1.67042e+01
189.000      1.72706e+01
190.000      1.77700e+01
191.000      1.81919e+01
192.000      1.85384e+01
193.000      1.88204e+01
194.000      1.90526e+01
195.000      1.92474e+01
196.000      1.94106e+01
197.000      1.95389e+01
198.000      1.96220e+01
199.000      1.96446e+01
200.000      1.95913e+01
201.000      1.94492e+01
202.000      1.92105e+01
203.000      1.88720e+01
204.000      1.84343e+01
205.000      1.79001e+01
206.000      1.72721e+01
207.000      1.65522e+01
208.000      1.57413e+01
209.000      1.48406e+01
210.000      1.38535e+01
211.000      1.27887e+01
212.000      1.16621e+01
213.000      1.04997e+01
214.000      9.33728e+00
215.000      8.21896e+00
216.000      7.19290e+00
217.000      6.30561e+00
218.000      5.59505e+00
219.000      5.08416e+00
220.000      4.77592e+00
221.000      4.65142e+00
222.000      4.67210e+00
223.000      4.78636e+00
224.000      4.94005e+00
225.000      5.08845e+00
226.000      5.20706e+00
227.000      5.29775e+00
228.000      5.38836e+00
229.000      5.52552e+00
230.000      5.76247e+00
231.000      6.14512e+00
232.000      6.69982e+00
233.000      7.42574e+00
234.000      8.29327e+00
235.000      9.24819e+00
236.000      1.02205e+01
237.000      1.11352e+01
238.000      1.19235e+01
239.000      1.25307e+01
240.000      1.29217e+01
241.000      1.30809e+01
242.000      1.30103e+01
243.000      1.27244e+01
244.000      1.22463e+01
245.000      1.16037e+01
246.000      1.08284e+01
247.000      9.95606e+00
248.000      9.02773e+00
249.000      8.09118e+00
250.000      7.20097e+00
251.000      6.41685e+00
252.000      5.79996e+00
253.000      5.40658e+00
254.000      5.27972e+00
255.000      5.43968e+00
256.000      5.87583e+00
257.000      6.54212e+00
258.000      7.35901e+00
259.000      8.22266e+00
260.000      9.02042e+00
261.000      9.64966e+00
262.000      1.00356e+01
263.000      1.01442e+01
264.000      9.98772e+00
265.000      9.62184e+00
266.000      9.13639e+00
267.000      8.64144e+00
268.000      8.25185e+00
269.000      8.07264e+00
270.000      8.18707e+00
271.000      8.64859e+00
272.000      9.47696e+00
273.000      1.06581e+01
274.000      1.21471e+01
275.000      1.38729e+01
276.000      1.57447e+01
277.000      1.76595e+01
278.000      1.95109e+01
279.000      2.11968e+01
280.000      2.26278e+01
281.000      2.37323e+01
282.000      2.44590e+01
283.000      2.47790e+01
284.000      2.46855e+01
285.000      2.41961e+01
286.000      2.33535e+01
287.000      2.22258e+01
288.000      2.09019e+01
289.000      1.94816e+01
290.000      1.80609e+01
291.000      1.67169e+01
292.000      1.54955e+01
293.000      1.44085e+01
294.000      1.34386e+01
295.000      1.25524e+01
296.000      1.17156e+01
297.000      1.09053e+01
298.000      1.01156e+01
299.000      9.35646e+00
300.000      8.64659e+00
301.000      8.00438e+00
302.000      7.44068e+00
303.000      6.95515e+00
304.000      6.53703e+00
305.000      6.16888e+00
306.000      5.83156e+00
307.000      5.50851e+00
308.000      5.18827e+00
309.000      4.86533e+00
310.000      4.53981e+00
311.000      4.21675e+00
312.000      3.90506e+00
313.000      3.61626e+00
314.000      3.36248e+00
315.000      3.15427e+00
316.000      2.99851e+00
317.000      2.89746e+00
318.000      2.84943e+00
319.000      2.85076e+00
320.000      2.89852e+00
321.000      2.99256e+00
322.000      3.13639e+00
323.000      3.33653e+00
324.000      3.60088e+00
325.000      3.93668e+00
326.000      4.34858e+00
327.000      4.83695e+00
328.000      5.39620e+00
329.000      6.01327e+00
330.000      6.66677e+00
331.000      7.32794e+00
332.000      7.96415e+00
333.000      8.54514e+00
334.000      9.05043e+00
335.000      9.47573e+00
336.000      9.83563e+00
337.000      1.01613e+01
338.000      1.04939e+01
339.000      1.08747e+01
340.000      1.13355e+01
341.000      1.18909e+01
342.000      1.25338e+01
343.000      1.32345e+01
344.000      1.39437e+01
345.000      1.45989e+01
346.000      1.51336e+01
347.000      1.54873e+01
348.000      1.56158e+01
349.000      1.54967e+01
350.000      1.51321e+01
351.000      1.45460e+01
352.000      1.37783e+01
353.000      1.28789e+01
354.000      1.19021e+01
355.000      1.09025e+01
356.000      9.93227e+00
357.000      9.03803e+00
358.000      8.25679e+00
359.000      7.61157e+00
360.000      7.10773e+00
361.000      6.73192e+00
362.000      6.45514e+00
363.000      6.23990e+00
364.000      6.05001e+00
365.000      5.86019e+00
366.000      5.66240e+00
367.000      5.46659e+00
368.000      5.29537e+00
369.000      5.17414e+00
370.000      5.12003e+00
371.000      5.13349e+00
372.000      5.19553e+00
373.000      5.27172e+00
374.000      5.32153e+00
375.000      5.30992e+00
376.000      5.21729e+00
377.000      5.04471e+00
378.000      4.81320e+00
379.000      4.55767e+00
380.000      4.31773e+00
381.000      4.12807e+00
382.000      4.01074e+00
383.000      3.97095e+00
384.000      3.99692e+00
385.000      4.06334e+00
386.000      4.13755e+00
387.000      4.18664e+00
388.000      4.18397e+00
389.000      4.11335e+00
390.000      3.97050e+00
391.000      3.76176e+00
392.000      3.50118e+00
393.000      3.20718e+00
394.000      2.89963e+00
395.000      2.59767e+00
396.000      2.31781e+00
397.000      2.07215e+00
398.000      1.86658e+00
399.000      1.69963e+00
400.000      1.56273e+00
401.000      1.44235e+00
402.000      1.32371e+00
403.000      1.19493e+00
404.000      1.05032e+00
405.000      8.91451e-01
406.000      7.25964e-01
407.000      5.64674e-01
408.000      4.18194e-01
409.000      2.94256e-01
410.000      1.96434e-01
411.000      1.24291e-01
412.000      7.44941e-02
413.000      4.22744e-02
414.000      2.27085e-02
415.000      1.15445e-02
416.000      5.55369e-03
417.000      2.52800e-03
418.000      1.08877e-03
419.000      4.43654e-04
420.000      1.71037e-04
421.000      6.23833e-05
422.000      2.15264e-05
423.000      7.02749e-06
424.000      2.17045e-06
425.000      6.34191e-07
426.000      1.75311e-07
427.000      4.58478e-08
428.000      1.13434e-08
429.000      2.65515e-09
430.000      5.87967e-10
431.000      1.23178e-10
432.000      2.44136e-11
433.000      4.57771e-12
434.000      8.12048e-13
435.000      1.36280e-13
436.000      2.16373e-14
437.000      3.25004e-15
438.000      4.61842e-16
439.000      6.20891e-17
440.000      7.89688e-18
441.000      9.50195e-19
442.000      1.08165e-19
443.000      1.16488e-20
444.000      1.18683e-21
445.000      1.14398e-22
446.000      1.04319e-23
447.000      8.99965e-25
448.000      7.34524e-26
449.000      5.67158e-27
450.000      4.14304e-28
451.000      2.86321e-29
452.000      1.87199e-30
453.000      1.15790e-31
454.000      6.77576e-33
455.000      3.75113e-34
456.000      1.96464e-35
457.000      9.73468e-37
458.000      4.56329e-38
459.000      2.02373e-39
460.000      8.49070e-41
461.000      3.37018e-42
462.000      1.26555e-43
463.000      4.49598e-45
464.000      1.51108e-46
465.000      4.80469e-48
466.000      1.44532e-49
467.000      4.11318e-51
468.000      1.10741e-52
469.000      2.82072e-54
470.000      6.79717e-56
471.000      1.54958e-57
472.000      3.34207e-59
473.000      6.81925e-61
474.000      1.31636e-62
475.000      2.40398e-64
476.000      4.15340e-66
477.000      6.78882e-68
478.000      1.04979e-69
479.000      1.53578e-71
480.000      2.12555e-73
481.000      2.78313e-75
482.000      3.44756e-77
483.000      4.04025e-79
484.000      4.47943e-81
485.000      4.69845e-83
486.000      4.66234e-85
487.000      4.37694e-87
488.000      3.88736e-89
489.000      3.26631e-91
490.000      2.59643e-93
491.000      1.95260e-95
492.000      1.38921e-97
493.000     9.35063e-100
494.000     5.95431e-102
495.000     3.58706e-104
496.000     2.04439e-106
497.000     1.10232e-108
498.000     5.62299e-111
499.000     2.71360e-113
500.000     1.23891e-115
