# Gaussian folded, width=10 cm^-1
# [cm^-1] arbitrary
0.000      3.00000e+00
1.000      2.91796e+00
2.000      2.68508e+00
3.000      2.33749e+00
4.000      1.92514e+00
5.000      1.50000e+00
6.000      1.10570e+00
7.000      7.71085e-01
8.000      5.08727e-01
9.000      3.17529e-01
10.000      1.87500e-01
11.000      1.04746e-01
12.000      5.53590e-02
13.000      2.76795e-02
14.000      1.30932e-02
15.000      5.85939e-03
16.000      2.48077e-03
17.000      9.93899e-04
18.000      3.77606e-04
19.000      1.38885e-04
20.000      5.89561e-05
21.000      5.67472e-05
22.000      1.31576e-04
23.000      3.65150e-04
24.000      9.86846e-04
25.000      2.53330e-03
26.000      6.16151e-03
27.000      1.41955e-02
28.000      3.09802e-02
29.000      6.40465e-02
30.000      1.25429e-01
31.000      2.32705e-01
32.000      4.09007e-01
33.000      6.81060e-01
34.000      1.07443e+00
35.000      1.60592e+00
36.000      2.27422e+00
37.000      3.05148e+00
38.000      3.87946e+00
39.000      4.67326e+00
40.000      5.33416e+00
41.000      5.76921e+00
42.000      5.91258e+00
43.000      5.74187e+00
44.000      5.28385e+00
45.000      4.60757e+00
46.000      3.80732e+00
47.000      2.98124e+00
48.000      2.21211e+00
49.000      1.55543e+00
50.000      1.03645e+00
51.000      6.54628e-01
52.000      3.92283e-01
53.000      2.23992e-01
54.000      1.24197e-01
55.000      7.21198e-02
56.000      5.42153e-02
57.000      6.50143e-02
58.000      1.07196e-01
59.000      1.91294e-01
60.000      3.34866e-01
61.000      5.60505e-01
62.000      8.91928e-01
63.000      1.34779e+00
64.000      1.93375e+00
65.000      2.63455e+00
66.000      3.40878e+00
67.000      4.18929e+00
68.000      4.89092e+00
69.000      5.42501e+00
70.000      5.71765e+00
71.000      5.72637e+00
72.000      5.45022e+00
73.000      4.92993e+00
74.000      4.23810e+00
75.000      3.46273e+00
76.000      2.68921e+00
77.000      1.98591e+00
78.000      1.39654e+00
79.000      9.39869e-01
80.000      6.15334e-01
81.000      4.11563e-01
82.000      3.15104e-01
83.000      3.17170e-01
84.000      4.17213e-01
85.000      6.22864e-01
86.000      9.46325e-01
87.000      1.39780e+00
88.000      1.97723e+00
89.000      2.66624e+00
90.000      3.42302e+00
91.000      4.18246e+00
92.000      4.86327e+00
93.000      5.38133e+00
94.000      5.66666e+00
95.000      5.67948e+00
96.000      5.42069e+00
97.000      4.93359e+00
98.000      4.29674e+00
99.000      3.61044e+00
100.000      2.98113e+00
101.000      2.50791e+00
102.000      2.27336e+00
103.000      2.33845e+00
104.000      2.73981e+00
105.000      3.48705e+00
106.000      4.55951e+00
107.000      5.90357e+00
108.000      7.43303e+00
109.000      9.03514e+00
110.000      1.05830e+01
111.000      1.19530e+01
112.000      1.30428e+01
113.000      1.37864e+01
114.000      1.41617e+01
115.000      1.41898e+01
116.000      1.39264e+01
117.000      1.34479e+01
118.000      1.28358e+01
119.000      1.21627e+01
120.000      1.14817e+01
121.000      1.08215e+01
122.000      1.01876e+01
123.000      9.56881e+00
124.000      8.94699e+00
125.000      8.30766e+00
126.000      7.64830e+00
127.000      6.98178e+00
128.000      6.33448e+00
129.000      5.74001e+00
130.000      5.23132e+00
131.000      4.83444e+00
132.000      4.56610e+00
133.000      4.43569e+00
134.000      4.44992e+00
135.000      4.61709e+00
136.000      4.94798e+00
137.000      5.45206e+00
138.000      6.13000e+00
139.000      6.96588e+00
140.000      7.92281e+00
141.000      8.94494e+00
142.000      9.96554e+00
143.000      1.09188e+01
144.000      1.17506e+01
145.000      1.24253e+01
146.000      1.29269e+01
147.000      1.32549e+01
148.000      1.34201e+01
149.000      1.34406e+01
150.000      1.33406e+01
151.000      1.31518e+01
152.000      1.29123e+01
153.000      1.26645e+01
154.000      1.24494e+01
155.000      1.22992e+01
156.000      1.22305e+01
157.000      1.22414e+01
158.000      1.23115e+01
159.000      1.24069e+01
160.000      1.24865e+01
161.000      1.25084e+01
162.000      1.24353e+01
163.000      1.22383e+01
164.000      1.18986e+01
165.000      1.14092e+01
166.000      1.07763e+01
167.000      1.00209e+01
168.000      9.17930e+00
169.000      8.30170e+00
170.000      7.44808e+00
171.000      6.68122e+00
172.000      6.05798e+00
173.000      5.62080e+00
174.000      5.39163e+00
175.000      5.36997e+00
176.000      5.53531e+00
177.000      5.85315e+00
178.000      6.28240e+00
179.000      6.78220e+00
180.000      7.31642e+00
181.000      7.85536e+00
182.000      8.37520e+00
183.000      8.85620e+00
184.000      9.28092e+00
185.000      9.63356e+00
186.000      9.90060e+00
187.000      1.00727e+01
188.000      1.01471e+01
189.000      1.01290e+01
190.000      1.00315e+01
191.000      9.87293e+00
192.000      9.67296e+00
193.000      9.44789e+00
194.000      9.20783e+00
195.000      8.95647e+00
196.000      8.69375e+00
197.000      8.42058e+00
198.000      8.14354e+00
199.000      7.87782e+00
200.000      7.64681e+00
201.000      7.47791e+00
202.000      7.39527e+00
203.000      7.41134e+00
204.000      7.51975e+00
205.000      7.69223e+00
206.000      7.88117e+00
207.000      8.02802e+00
208.000      8.07567e+00
209.000      7.98165e+00
210.000      7.72876e+00
211.000      7.33023e+00
212.000      6.82859e+00
213.000      6.28857e+00
214.000      5.78583e+00
215.000      5.39403e+00
216.000      5.17229e+00
217.000      5.15538e+00
218.000      5.34817e+00
219.000      5.72551e+00
220.000      6.23802e+00
221.000      6.82258e+00
222.000      7.41558e+00
223.000      7.96541e+00
224.000      8.44081e+00
225.000      8.83281e+00
226.000      9.14982e+00
227.000      9.40811e+00
228.000      9.62146e+00
229.000      9.79427e+00
230.000      9.92076e+00
231.000      9.99023e+00
232.000      9.99570e+00
233.000      9.94160e+00
234.000      9.84647e+00
235.000      9.73898e+00
236.000      9.64876e+00
237.000      9.59558e+00
238.000      9.58178e+00
239.000      9.59089e+00
240.000      9.59323e+00
241.000      9.55617e+00
242.000      9.45504e+00
243.000      9.28090e+00
244.000      9.04256e+00
245.000      8.76286e+00
246.000      8.47114e+00
247.000      8.19483e+00
248.000      7.95309e+00
249.000      7.75425e+00
250.000      7.59713e+00
251.000      7.47488e+00
252.000      7.37929e+00
253.000      7.30344e+00
254.000      7.24175e+00
255.000      7.18798e+00
256.000      7.13289e+00
257.000      7.06371e+00
258.000      6.96678e+00
259.000      6.83280e+00
260.000      6.66254e+00
261.000      6.46993e+00
262.000      6.28030e+00
263.000      6.12354e+00
264.000      6.02437e+00
265.000      5.99333e+00
266.000      6.02178e+00
267.000      6.08282e+00
268.000      6.13747e+00
269.000      6.14395e+00
270.000      6.06718e+00
271.000      5.88595e+00
272.000      5.59650e+00
273.000      5.21226e+00
274.000      4.76046e+00
275.000      4.27672e+00
276.000      3.79902e+00
277.000      3.36254e+00
278.000      2.99623e+00
279.000      2.72152e+00
280.000      2.55277e+00
281.000      2.49855e+00
282.000      2.56281e+00
283.000      2.74530e+00
284.000      3.04136e+00
285.000      3.44131e+00
286.000      3.93004e+00
287.000      4.48687e+00
288.000      5.08600e+00
289.000      5.69755e+00
290.000      6.28939e+00
291.000      6.82985e+00
292.000      7.29136e+00
293.000      7.65429e+00
294.000      7.91005e+00
295.000      8.06248e+00
296.000      8.12655e+00
297.000      8.12493e+00
298.000      8.08334e+00
299.000      8.02626e+00
300.000      7.97436e+00
301.000      7.94398e+00
302.000      7.94807e+00
303.000      7.99744e+00
304.000      8.10126e+00
305.000      8.26609e+00
306.000      8.49385e+00
307.000      8.77930e+00
308.000      9.10818e+00
309.000      9.45699e+00
310.000      9.79535e+00
311.000      1.00911e+01
312.000      1.03176e+01
313.000      1.04611e+01
314.000      1.05265e+01
315.000      1.05385e+01
316.000      1.05370e+01
317.000      1.05687e+01
318.000      1.06761e+01
319.000      1.08877e+01
320.000      1.12136e+01
321.000      1.16468e+01
322.000      1.21692e+01
323.000      1.27597e+01
324.000      1.34008e+01
325.000      1.40813e+01
326.000      1.47931e+01
327.000      1.55249e+01
328.000      1.62558e+01
329.000      1.69510e+01
330.000      1.75639e+01
331.000      1.80440e+01
332.000      1.83480e+01
333.000      1.84517e+01
334.000      1.83572e+01
335.000      1.80948e+01
336.000      1.77175e+01
337.000      1.72907e+01
338.000      1.68812e+01
339.000      1.65469e+01
340.000      1.63310e+01
341.000      1.62608e+01
342.000      1.63494e+01
343.000      1.65996e+01
344.000      1.70076e+01
345.000      1.75657e+01
346.000      1.82635e+01
347.000      1.90875e+01
348.000      2.00202e+01
349.000      2.10384e+01
350.000      2.21126e+01
351.000      2.32071e+01
352.000      2.42808e+01
353.000      2.52883e+01
354.000      2.61819e+01
355.000      2.69126e+01
356.000      2.74331e+01
357.000      2.77005e+01
358.000      2.76819e+01
359.000      2.73604e+01
360.000      2.67406e+01
361.000      2.58515e+01
362.000      2.47444e+01
363.000      2.34857e+01
364.000      2.21443e+01
365.000      2.07789e+01
366.000      1.94268e+01
367.000      1.80997e+01
368.000      1.67872e+01
369.000      1.54683e+01
370.000      1.41266e+01
371.000      1.27655e+01
372.000      1.14173e+01
373.000      1.01440e+01
374.000      9.02800e+00
375.000      8.15618e+00
376.000      7.60181e+00
377.000      7.40961e+00
378.000      7.58877e+00
379.000      8.11543e+00
380.000      8.94341e+00
381.000      1.00188e+01
382.000      1.12922e+01
383.000      1.27243e+01
384.000      1.42807e+01
385.000      1.59183e+01
386.000      1.75691e+01
387.000      1.91281e+01
388.000      2.04529e+01
389.000      2.13789e+01
390.000      2.17476e+01
391.000      2.14424e+01
392.000      2.04193e+01
393.000      1.87256e+01
394.000      1.64964e+01
395.000      1.39322e+01
396.000      1.12616e+01
397.000      8.70004e+00
398.000      6.41648e+00
399.000      4.51419e+00
400.000      3.02904e+00
401.000      1.94167e+00
402.000      1.19749e+00
403.000      7.27612e-01
404.000      4.65792e-01
405.000      3.58781e-01
406.000      3.70171e-01
407.000      4.79119e-01
408.000      6.75933e-01
409.000      9.56339e-01
410.000      1.31590e+00
411.000      1.74551e+00
412.000      2.22873e+00
413.000      2.74090e+00
414.000      3.25034e+00
415.000      3.72105e+00
416.000      4.11656e+00
417.000      4.40451e+00
418.000      4.56095e+00
419.000      4.57383e+00
420.000      4.44470e+00
421.000      4.18814e+00
422.000      3.82912e+00
423.000      3.39884e+00
424.000      2.93031e+00
425.000      2.45472e+00
426.000      1.99911e+00
427.000      1.58543e+00
428.000      1.23043e+00
429.000      9.45915e-01
430.000      7.38863e-01
431.000      6.11260e-01
432.000      5.59695e-01
433.000      5.74955e-01
434.000      6.41973e-01
435.000      7.40555e-01
436.000      8.47255e-01
437.000      9.38424e-01
438.000      9.93979e-01
439.000      1.00096e+00
440.000      9.55757e-01
441.000      8.64252e-01
442.000      7.39695e-01
443.000      5.99066e-01
444.000      4.59045e-01
445.000      3.32793e-01
446.000      2.28254e-01
447.000      1.48110e-01
448.000      9.09220e-02
449.000      5.28047e-02
450.000      2.90131e-02
451.000      1.50811e-02
452.000      7.41636e-03
453.000      3.45037e-03
454.000      1.51865e-03
455.000      6.32366e-04
456.000      2.49113e-04
457.000      9.28413e-05
458.000      3.27344e-05
459.000      1.09190e-05
460.000      3.44574e-06
461.000      1.02872e-06
462.000      2.90557e-07
463.000      7.76394e-08
464.000      1.96268e-08
465.000      4.69393e-09
466.000      1.06204e-09
467.000      2.27332e-10
468.000      4.60363e-11
469.000      8.81976e-12
470.000      1.59857e-12
471.000      2.74108e-13
472.000      4.44664e-14
473.000      6.82431e-15
474.000      9.90839e-16
475.000      1.36102e-16
476.000      1.76866e-17
477.000      2.17441e-18
478.000      2.52905e-19
479.000      2.78285e-20
480.000      2.89694e-21
481.000      2.85303e-22
482.000      2.65823e-23
483.000      2.34312e-24
484.000      1.95396e-25
485.000      1.54153e-26
486.000      1.15056e-27
487.000      8.12423e-29
488.000      5.42717e-30
489.000      3.42990e-31
490.000      2.05073e-32
491.000      1.15998e-33
492.000      6.20744e-35
493.000      3.14262e-36
494.000      1.50518e-37
495.000      6.82027e-39
496.000      2.92370e-40
497.000      1.18572e-41
498.000      4.54935e-43
499.000      1.65133e-44
500.000      5.67069e-46
