# Gaussian folded, width=10 cm^-1
# [cm^-1] arbitrary
0.000      3.00000e+00
1.000      2.91796e+00
2.000      2.68508e+00
3.000      2.33749e+00
4.000      1.92514e+00
5.000      1.50000e+00
6.000      1.10570e+00
7.000      7.71085e-01
8.000      5.08727e-01
9.000      3.17529e-01
10.000      1.87500e-01
11.000      1.04746e-01
12.000      5.53594e-02
13.000      2.76808e-02
14.000      1.30976e-02
15.000      5.87414e-03
16.000      2.52765e-03
17.000      1.13497e-03
18.000      7.79555e-04
19.000      1.22319e-03
20.000      2.82813e-03
21.000      6.75171e-03
22.000      1.54533e-02
23.000      3.35531e-02
24.000      6.90151e-02
25.000      1.34460e-01
26.000      2.48133e-01
27.000      4.33747e-01
28.000      7.18229e-01
29.000      1.12663e+00
30.000      1.67421e+00
31.000      2.35702e+00
32.000      3.14382e+00
33.000      3.97289e+00
34.000      4.75691e+00
35.000      5.39668e+00
36.000      5.80128e+00
37.000      5.90919e+00
38.000      5.70360e+00
39.000      5.21674e+00
40.000      4.52158e+00
41.000      3.71406e+00
42.000      2.89165e+00
43.000      2.13507e+00
44.000      1.49764e+00
45.000      1.00390e+00
46.000      6.55449e-01
47.000      4.40975e-01
48.000      3.46441e-01
49.000      3.62949e-01
50.000      4.90563e-01
51.000      7.37640e-01
52.000      1.11590e+00
53.000      1.63227e+00
54.000      2.27935e+00
55.000      3.02723e+00
56.000      3.81978e+00
57.000      4.57806e+00
58.000      5.21146e+00
59.000      5.63478e+00
60.000      5.78683e+00
61.000      5.64480e+00
62.000      5.22989e+00
63.000      4.60219e+00
64.000      3.84657e+00
65.000      3.05427e+00
66.000      2.30578e+00
67.000      1.65963e+00
68.000      1.14902e+00
69.000      7.85686e-01
70.000      5.68093e-01
71.000      4.90693e-01
72.000      5.50988e-01
73.000      7.52348e-01
74.000      1.10174e+00
75.000      1.60287e+00
76.000      2.24669e+00
77.000      3.00236e+00
78.000      3.81246e+00
79.000      4.59568e+00
80.000      5.25833e+00
81.000      5.71298e+00
82.000      5.89976e+00
83.000      5.80394e+00
84.000      5.46456e+00
85.000      4.97129e+00
86.000      4.45040e+00
87.000      4.04384e+00
88.000      3.88628e+00
89.000      4.08450e+00
90.000      4.70158e+00
91.000      5.74765e+00
92.000      7.17754e+00
93.000      8.89617e+00
94.000      1.07714e+01
95.000      1.26527e+01
96.000      1.43917e+01
97.000      1.58605e+01
98.000      1.69637e+01
99.000      1.76412e+01
100.000      1.78665e+01
101.000      1.76412e+01
102.000      1.69918e+01
103.000      1.59686e+01
104.000      1.46470e+01
105.000      1.31253e+01
106.000      1.15181e+01
107.000      9.94165e+00
108.000      8.49613e+00
109.000      7.24957e+00
110.000      6.22923e+00
111.000      5.42481e+00
112.000      4.80266e+00
113.000      4.32685e+00
114.000      3.97972e+00
115.000      3.77557e+00
116.000      3.76312e+00
117.000      4.01628e+00
118.000      4.61566e+00
119.000      5.62553e+00
120.000      7.07140e+00
121.000      8.92325e+00
122.000      1.10885e+01
123.000      1.34174e+01
124.000      1.57213e+01
125.000      1.78011e+01
126.000      1.94795e+01
127.000      2.06317e+01
128.000      2.12045e+01
129.000      2.12206e+01
130.000      2.07683e+01
131.000      1.99772e+01
132.000      1.89899e+01
133.000      1.79338e+01
134.000      1.69009e+01
135.000      1.59386e+01
136.000      1.50518e+01
137.000      1.42147e+01
138.000      1.33883e+01
139.000      1.25392e+01
140.000      1.16543e+01
141.000      1.07501e+01
142.000      9.87170e+00
143.000      9.08486e+00
144.000      8.46093e+00
145.000      8.05979e+00
146.000      7.91443e+00
147.000      8.02130e+00
148.000      8.33881e+00
149.000      8.79448e+00
150.000      9.29900e+00
151.000      9.76376e+00
152.000      1.01179e+01
153.000      1.03205e+01
154.000      1.03660e+01
155.000      1.02814e+01
156.000      1.01167e+01
157.000      9.93082e+00
158.000      9.77822e+00
159.000      9.69748e+00
160.000      9.70619e+00
161.000      9.80177e+00
162.000      9.96738e+00
163.000      1.01802e+01
164.000      1.04194e+01
165.000      1.06709e+01
166.000      1.09293e+01
167.000      1.11954e+01
168.000      1.14725e+01
169.000      1.17620e+01
170.000      1.20612e+01
171.000      1.23626e+01
172.000      1.26556e+01
173.000      1.29304e+01
174.000      1.31804e+01
175.000      1.34043e+01
176.000      1.36047e+01
177.000      1.37856e+01
178.000      1.39488e+01
179.000      1.40917e+01
180.000      1.42081e+01
181.000      1.42909e+01
182.000      1.43366e+01
183.000      1.43494e+01
184.000      1.43427e+01
185.000      1.43369e+01
186.000      1.43561e+01
187.000      1.44219e+01
188.000      1.45494e+01
189.000      1.47443e+01
190.000      1.50033e+01
191.000      1.53161e+01
192.000      1.56693e+01
193.000      1.60498e+01
194.000      1.64473e+01
195.000      1.68537e+01
196.000      1.72605e+01
197.000      1.76552e+01
198.000      1.80182e+01
199.000      1.83222e+01
200.000      1.85355e+01
201.000      1.86283e+01
202.000      1.85793e+01
203.000      1.83823e+01
204.000      1.80474e+01
205.000      1.75980e+01
206.000      1.70636e+01
207.000      1.64709e+01
208.000      1.58350e+01
209.000      1.51572e+01
210.000      1.44262e+01
211.000      1.36268e+01
212.000      1.27497e+01
213.000      1.18018e+01
214.000      1.08102e+01
215.000      9.82094e+00
216.000      8.89030e+00
217.000      8.07296e+00
218.000      7.41010e+00
219.000      6.92141e+00
220.000      6.60294e+00
221.000      6.43098e+00
222.000      6.36983e+00
223.000      6.38094e+00
224.000      6.43053e+00
225.000      6.49424e+00
226.000      6.55820e+00
227.000      6.61743e+00
228.000      6.67299e+00
229.000      6.72936e+00
230.000      6.79298e+00
231.000      6.87202e+00
232.000      6.97648e+00
233.000      7.11764e+00
234.000      7.30604e+00
235.000      7.54816e+00
236.000      7.84297e+00
237.000      8.17985e+00
238.000      8.53896e+00
239.000      8.89447e+00
240.000      9.21936e+00
241.000      9.49058e+00
242.000      9.69274e+00
243.000      9.81988e+00
244.000      9.87507e+00
245.000      9.86857e+00
246.000      9.81489e+00
247.000      9.72962e+00
248.000      9.62618e+00
249.000      9.51354e+00
250.000      9.39531e+00
251.000      9.27065e+00
252.000      9.13657e+00
253.000      8.99047e+00
254.000      8.83158e+00
255.000      8.66042e+00
256.000      8.47655e+00
257.000      8.27612e+00
258.000      8.05100e+00
259.000      7.79073e+00
260.000      7.48735e+00
261.000      7.14148e+00
262.000      6.76761e+00
263.000      6.39677e+00
264.000      6.07573e+00
265.000      5.86332e+00
266.000      5.82464e+00
267.000      6.02427e+00
268.000      6.51877e+00
269.000      7.34860e+00
270.000      8.53012e+00
271.000      1.00488e+01
272.000      1.18554e+01
273.000      1.38681e+01
274.000      1.59793e+01
275.000      1.80694e+01
276.000      2.00229e+01
277.000      2.17432e+01
278.000      2.31638e+01
279.000      2.42515e+01
280.000      2.50017e+01
281.000      2.54278e+01
282.000      2.55497e+01
283.000      2.53839e+01
284.000      2.49409e+01
285.000      2.42295e+01
286.000      2.32652e+01
287.000      2.20790e+01
288.000      2.07212e+01
289.000      1.92589e+01
290.000      1.77659e+01
291.000      1.63102e+01
292.000      1.49424e+01
293.000      1.36896e+01
294.000      1.25557e+01
295.000      1.15276e+01
296.000      1.05841e+01
297.000      9.70438e+00
298.000      8.87468e+00
299.000      8.09072e+00
300.000      7.35748e+00
301.000      6.68627e+00
302.000      6.09050e+00
303.000      5.58099e+00
304.000      5.16209e+00
305.000      4.82960e+00
306.000      4.57132e+00
307.000      4.37009e+00
308.000      4.20835e+00
309.000      4.07258e+00
310.000      3.95603e+00
311.000      3.85887e+00
312.000      3.78598e+00
313.000      3.74355e+00
314.000      3.73613e+00
315.000      3.76531e+00
316.000      3.83045e+00
317.000      3.93089e+00
318.000      4.06828e+00
319.000      4.24728e+00
320.000      4.47405e+00
321.000      4.75250e+00
322.000      5.07991e+00
323.000      5.44398e+00
324.000      5.82319e+00
325.000      6.19090e+00
326.000      6.52218e+00
327.000      6.80080e+00
328.000      7.02378e+00
329.000      7.20218e+00
330.000      7.35806e+00
331.000      7.51955e+00
332.000      7.71592e+00
333.000      7.97384e+00
334.000      8.31472e+00
335.000      8.75227e+00
336.000      9.28943e+00
337.000      9.91538e+00
338.000      1.06042e+01
339.000      1.13170e+01
340.000      1.20085e+01
341.000      1.26357e+01
342.000      1.31667e+01
343.000      1.35854e+01
344.000      1.38910e+01
345.000      1.40920e+01
346.000      1.41983e+01
347.000      1.42138e+01
348.000      1.41335e+01
349.000      1.39447e+01
350.000      1.36322e+01
351.000      1.31852e+01
352.000      1.26030e+01
353.000      1.18986e+01
354.000      1.10994e+01
355.000      1.02447e+01
356.000      9.38122e+00
357.000      8.55675e+00
358.000      7.81433e+00
359.000      7.18705e+00
360.000      6.69485e+00
361.000      6.34342e+00
362.000      6.12487e+00
363.000      6.01955e+00
364.000      5.99854e+00
365.000      6.02667e+00
366.000      6.06606e+00
367.000      6.08044e+00
368.000      6.03961e+00
369.000      5.92353e+00
370.000      5.72515e+00
371.000      5.45121e+00
372.000      5.12110e+00
373.000      4.76405e+00
374.000      4.41520e+00
375.000      4.11103e+00
376.000      3.88439e+00
377.000      3.75914e+00
378.000      3.74518e+00
379.000      3.83452e+00
380.000      4.00031e+00
381.000      4.19992e+00
382.000      4.38237e+00
383.000      4.49873e+00
384.000      4.51285e+00
385.000      4.40909e+00
386.000      4.19495e+00
387.000      3.89799e+00
388.000      3.55842e+00
389.000      3.21979e+00
390.000      2.92036e+00
391.000      2.68676e+00
392.000      2.53072e+00
393.000      2.44890e+00
394.000      2.42533e+00
395.000      2.43603e+00
396.000      2.45462e+00
397.000      2.45794e+00
398.000      2.42997e+00
399.000      2.36334e+00
400.000      2.25816e+00
401.000      2.11912e+00
402.000      1.95242e+00
403.000      1.76387e+00
404.000      1.55864e+00
405.000      1.34217e+00
406.000      1.12135e+00
407.000      9.04817e-01
408.000      7.02104e-01
409.000      5.21967e-01
410.000      3.70640e-01
411.000      2.50768e-01
412.000      1.61360e-01
413.000      9.86075e-02
414.000      5.71696e-02
415.000      3.14215e-02
416.000      1.63627e-02
417.000      8.06990e-03
418.000      3.76827e-03
419.000      1.66564e-03
420.000      6.96815e-04
421.000      2.75869e-04
422.000      1.03348e-04
423.000      3.66344e-05
424.000      1.22869e-05
425.000      3.89900e-06
426.000      1.17060e-06
427.000      3.32506e-07
428.000      8.93559e-08
429.000      2.27183e-08
430.000      5.46453e-09
431.000      1.24352e-09
432.000      2.67717e-10
433.000      5.45281e-11
434.000      1.05071e-11
435.000      1.91543e-12
436.000      3.30344e-13
437.000      5.38997e-14
438.000      8.32002e-15
439.000      1.21501e-15
440.000      1.67863e-16
441.000      2.19405e-17
442.000      2.71304e-18
443.000      3.17383e-19
444.000      3.51260e-20
445.000      3.67783e-21
446.000      3.64310e-22
447.000      3.41405e-23
448.000      3.02681e-24
449.000      2.53874e-25
450.000      2.01451e-26
451.000      1.51230e-27
452.000      1.07405e-28
453.000      7.21652e-30
454.000      4.58722e-31
455.000      2.75860e-32
456.000      1.56944e-33
457.000      8.44732e-35
458.000      4.30141e-36
459.000      2.07214e-37
460.000      9.44381e-39
461.000      4.07185e-40
462.000      1.66094e-41
463.000      6.40964e-43
464.000      2.34008e-44
465.000      8.08250e-46
466.000      2.64106e-47
467.000      8.16448e-49
468.000      2.38779e-50
469.000      6.60666e-52
470.000      1.72936e-53
471.000      4.28258e-55
472.000      1.00333e-56
473.000      2.22382e-58
474.000      4.66308e-60
475.000      9.25047e-62
476.000      1.73609e-63
477.000      3.08247e-65
478.000      5.17776e-67
479.000      8.22817e-69
480.000      1.23704e-70
481.000      1.75946e-72
482.000      2.36752e-74
483.000      3.01387e-76
484.000      3.62973e-78
485.000      4.13563e-80
486.000      4.45785e-82
487.000      4.54599e-84
488.000      4.38579e-86
489.000      4.00300e-88
490.000      3.45653e-90
491.000      2.82366e-92
492.000      2.18224e-94
493.000      1.59555e-96
494.000      1.10366e-98
495.000     7.22236e-101
496.000     4.47136e-103
497.000     2.61889e-105
498.000     1.45115e-107
499.000     7.60724e-110
500.000     3.77275e-112
