# Gaussian folded, width=10 cm^-1
# [cm^-1] arbitrary
0.000      3.00000e+00
1.000      2.91796e+00
2.000      2.68508e+00
3.000      2.33749e+00
4.000      1.92514e+00
5.000      1.50000e+00
6.000      1.10570e+00
7.000      7.71085e-01
8.000      5.08727e-01
9.000      3.17529e-01
10.000      1.87500e-01
11.000      1.04746e-01
12.000      5.53593e-02
13.000      2.76806e-02
14.000      1.30972e-02
15.000      5.87291e-03
16.000      2.52403e-03
17.000      1.12495e-03
18.000      7.53457e-04
19.000      1.15934e-03
20.000      2.68163e-03
21.000      6.43686e-03
22.000      1.48209e-02
23.000      3.23688e-02
24.000      6.69555e-02
25.000      1.31151e-01
26.000      2.43260e-01
27.000      4.27256e-01
28.000      7.10596e-01
29.000      1.11912e+00
30.000      1.66897e+00
31.000      2.35690e+00
32.000      3.15175e+00
33.000      3.99097e+00
34.000      4.78543e+00
35.000      5.43346e+00
36.000      5.84173e+00
37.000      5.94721e+00
38.000      5.73308e+00
39.000      5.23315e+00
40.000      4.52313e+00
41.000      3.70190e+00
42.000      2.86928e+00
43.000      2.10704e+00
44.000      1.46823e+00
45.000      9.76061e-01
46.000      6.30331e-01
47.000      4.17957e-01
48.000      3.23642e-01
49.000      3.38002e-01
50.000      4.61567e-01
51.000      7.04148e-01
52.000      1.07976e+00
53.000      1.59799e+00
54.000      2.25373e+00
55.000      3.01794e+00
56.000      3.83326e+00
57.000      4.61712e+00
58.000      5.27363e+00
59.000      5.71212e+00
60.000      5.86753e+00
61.000      5.71613e+00
62.000      5.28148e+00
63.000      4.62852e+00
64.000      3.84780e+00
65.000      3.03535e+00
66.000      2.27447e+00
67.000      1.62420e+00
68.000      1.11654e+00
69.000      7.61174e-01
70.000      5.54625e-01
71.000      4.89888e-01
72.000      5.63523e-01
73.000      7.78126e-01
74.000      1.13962e+00
75.000      1.65016e+00
76.000      2.29867e+00
77.000      3.05239e+00
78.000      3.85273e+00
79.000      4.61867e+00
80.000      5.25845e+00
81.000      5.68780e+00
82.000      5.85012e+00
83.000      5.73277e+00
84.000      5.37463e+00
85.000      4.86266e+00
86.000      4.31880e+00
87.000      3.88074e+00
88.000      3.68137e+00
89.000      3.83026e+00
90.000      4.39898e+00
91.000      5.41111e+00
92.000      6.83715e+00
93.000      8.59528e+00
94.000      1.05590e+01
95.000      1.25719e+01
96.000      1.44670e+01
97.000      1.60889e+01
98.000      1.73124e+01
99.000      1.80555e+01
100.000      1.82839e+01
101.000      1.80092e+01
102.000      1.72815e+01
103.000      1.61800e+01
104.000      1.48029e+01
105.000      1.32570e+01
106.000      1.16485e+01
107.000      1.00734e+01
108.000      8.60990e+00
109.000      7.31238e+00
110.000      6.20918e+00
111.000      5.30530e+00
112.000      4.58999e+00
113.000      4.04821e+00
114.000      3.67348e+00
115.000      3.47852e+00
116.000      3.50023e+00
117.000      3.79632e+00
118.000      4.43321e+00
119.000      5.46678e+00
120.000      6.92056e+00
121.000      8.76698e+00
122.000      1.09177e+01
123.000      1.32275e+01
124.000      1.55119e+01
125.000      1.75764e+01
126.000      1.92495e+01
127.000      2.04125e+01
128.000      2.10176e+01
129.000      2.10905e+01
130.000      2.07177e+01
131.000      2.00226e+01
132.000      1.91366e+01
133.000      1.81728e+01
134.000      1.72087e+01
135.000      1.62798e+01
136.000      1.53859e+01
137.000      1.45053e+01
138.000      1.36124e+01
139.000      1.26942e+01
140.000      1.17601e+01
141.000      1.08440e+01
142.000      9.99857e+00
143.000      9.28430e+00
144.000      8.75588e+00
145.000      8.44987e+00
146.000      8.37630e+00
147.000      8.51600e+00
148.000      8.82388e+00
149.000      9.23702e+00
150.000      9.68555e+00
151.000      1.01037e+01
152.000      1.04388e+01
153.000      1.06576e+01
154.000      1.07482e+01
155.000      1.07193e+01
156.000      1.05965e+01
157.000      1.04165e+01
158.000      1.02198e+01
159.000      1.00436e+01
160.000      9.91596e+00
161.000      9.85229e+00
162.000      9.85488e+00
163.000      9.91561e+00
164.000      1.00204e+01
165.000      1.01543e+01
166.000      1.03051e+01
167.000      1.04649e+01
168.000      1.06298e+01
169.000      1.07981e+01
170.000      1.09682e+01
171.000      1.11386e+01
172.000      1.13084e+01
173.000      1.14801e+01
174.000      1.16608e+01
175.000      1.18631e+01
176.000      1.21023e+01
177.000      1.23925e+01
178.000      1.27406e+01
179.000      1.31433e+01
180.000      1.35855e+01
181.000      1.40431e+01
182.000      1.44890e+01
183.000      1.48989e+01
184.000      1.52569e+01
185.000      1.55581e+01
186.000      1.58075e+01
187.000      1.60171e+01
188.000      1.62011e+01
189.000      1.63720e+01
190.000      1.65376e+01
191.000      1.67013e+01
192.000      1.68638e+01
193.000      1.70265e+01
194.000      1.71943e+01
195.000      1.73772e+01
196.000      1.75889e+01
197.000      1.78418e+01
198.000      1.81419e+01
199.000      1.84827e+01
200.000      1.88419e+01
201.000      1.91819e+01
202.000      1.94549e+01
203.000      1.96100e+01
204.000      1.96015e+01
205.000      1.93961e+01
206.000      1.89760e+01
207.000      1.83385e+01
208.000      1.74940e+01
209.000      1.64618e+01
210.000      1.52686e+01
211.000      1.39486e+01
212.000      1.25442e+01
213.000      1.11069e+01
214.000      9.69477e+00
215.000      8.36803e+00
216.000      7.18187e+00
217.000      6.17933e+00
218.000      5.38548e+00
219.000      4.80435e+00
220.000      4.41926e+00
221.000      4.19694e+00
222.000      4.09511e+00
223.000      4.07251e+00
224.000      4.09930e+00
225.000      4.16471e+00
226.000      4.27938e+00
227.000      4.47076e+00
228.000      4.77264e+00
229.000      5.21201e+00
230.000      5.79766e+00
231.000      6.51421e+00
232.000      7.32311e+00
233.000      8.16990e+00
234.000      8.99465e+00
235.000      9.74223e+00
236.000      1.03697e+01
237.000      1.08496e+01
238.000      1.11697e+01
239.000      1.13302e+01
240.000      1.13403e+01
241.000      1.12154e+01
242.000      1.09746e+01
243.000      1.06396e+01
244.000      1.02337e+01
245.000      9.78068e+00
246.000      9.30371e+00
247.000      8.82420e+00
248.000      8.36136e+00
249.000      7.93264e+00
250.000      7.55519e+00
251.000      7.24782e+00
252.000      7.03267e+00
253.000      6.93514e+00
254.000      6.98105e+00
255.000      7.19061e+00
256.000      7.57011e+00
257.000      8.10355e+00
258.000      8.74730e+00
259.000      9.43068e+00
260.000      1.00638e+01
261.000      1.05522e+01
262.000      1.08147e+01
263.000      1.08015e+01
264.000      1.05075e+01
265.000      9.97734e+00
266.000      9.30207e+00
267.000      8.60680e+00
268.000      8.03177e+00
269.000      7.71051e+00
270.000      7.74929e+00
271.000      8.21154e+00
272.000      9.11011e+00
273.000      1.04080e+01
274.000      1.20264e+01
275.000      1.38574e+01
276.000      1.57789e+01
277.000      1.76686e+01
278.000      1.94163e+01
279.000      2.09333e+01
280.000      2.21583e+01
281.000      2.30595e+01
282.000      2.36325e+01
283.000      2.38939e+01
284.000      2.38721e+01
285.000      2.35980e+01
286.000      2.30984e+01
287.000      2.23938e+01
288.000      2.15020e+01
289.000      2.04435e+01
290.000      1.92479e+01
291.000      1.79558e+01
292.000      1.66168e+01
293.000      1.52832e+01
294.000      1.40026e+01
295.000      1.28114e+01
296.000      1.17322e+01
297.000      1.07740e+01
298.000      9.93508e+00
299.000      9.20668e+00
300.000      8.57495e+00
301.000      8.02256e+00
302.000      7.52959e+00
303.000      7.07505e+00
304.000      6.63976e+00
305.000      6.21010e+00
306.000      5.78137e+00
307.000      5.35930e+00
308.000      4.95847e+00
309.000      4.59805e+00
310.000      4.29623e+00
311.000      4.06539e+00
312.000      3.90968e+00
313.000      3.82539e+00
314.000      3.80325e+00
315.000      3.83120e+00
316.000      3.89638e+00
317.000      3.98591e+00
318.000      4.08711e+00
319.000      4.18812e+00
320.000      4.27941e+00
321.000      4.35640e+00
322.000      4.42198e+00
323.000      4.48803e+00
324.000      4.57491e+00
325.000      4.70876e+00
326.000      4.91679e+00
327.000      5.22146e+00
328.000      5.63445e+00
329.000      6.15152e+00
330.000      6.75004e+00
331.000      7.39032e+00
332.000      8.02208e+00
333.000      8.59503e+00
334.000      9.07116e+00
335.000      9.43488e+00
336.000      9.69722e+00
337.000      9.89248e+00
338.000      1.00685e+01
339.000      1.02746e+01
340.000      1.05503e+01
341.000      1.09200e+01
342.000      1.13909e+01
343.000      1.19548e+01
344.000      1.25900e+01
345.000      1.32611e+01
346.000      1.39194e+01
347.000      1.45042e+01
348.000      1.49475e+01
349.000      1.51839e+01
350.000      1.51623e+01
351.000      1.48565e+01
352.000      1.42724e+01
353.000      1.34476e+01
354.000      1.24454e+01
355.000      1.13447e+01
356.000      1.02275e+01
357.000      9.16796e+00
358.000      8.22440e+00
359.000      7.43388e+00
360.000      6.81080e+00
361.000      6.34812e+00
362.000      6.02156e+00
363.000      5.79578e+00
364.000      5.63211e+00
365.000      5.49611e+00
366.000      5.36341e+00
367.000      5.22226e+00
368.000      5.07226e+00
369.000      4.92001e+00
370.000      4.77344e+00
371.000      4.63709e+00
372.000      4.51017e+00
373.000      4.38802e+00
374.000      4.26617e+00
375.000      4.14533e+00
376.000      4.03491e+00
377.000      3.95332e+00
378.000      3.92418e+00
379.000      3.96924e+00
380.000      4.10013e+00
381.000      4.31186e+00
382.000      4.58067e+00
383.000      4.86738e+00
384.000      5.12523e+00
385.000      5.30979e+00
386.000      5.38781e+00
387.000      5.34252e+00
388.000      5.17442e+00
389.000      4.89838e+00
390.000      4.53856e+00
391.000      4.12334e+00
392.000      3.68142e+00
393.000      3.23955e+00
394.000      2.82121e+00
395.000      2.44566e+00
396.000      2.12645e+00
397.000      1.86971e+00
398.000      1.67287e+00
399.000      1.52477e+00
400.000      1.40796e+00
401.000      1.30276e+00
402.000      1.19209e+00
403.000      1.06551e+00
404.000      9.21011e-01
405.000      7.64266e-01
406.000      6.05748e-01
407.000      4.57023e-01
408.000      3.27510e-01
409.000      2.22603e-01
410.000      1.43371e-01
411.000      8.74507e-02
412.000      5.04979e-02
413.000      2.75987e-02
414.000      1.42738e-02
415.000      6.98534e-03
416.000      3.23446e-03
417.000      1.41699e-03
418.000      5.87313e-04
419.000      2.30305e-04
420.000      8.54406e-05
421.000      2.99880e-05
422.000      9.95756e-06
423.000      3.12808e-06
424.000      9.29656e-07
425.000      2.61388e-07
426.000      6.95290e-08
427.000      1.74970e-08
428.000      4.16564e-09
429.000      9.38245e-10
430.000      1.99926e-10
431.000      4.03031e-11
432.000      7.68646e-12
433.000      1.38686e-12
434.000      2.36731e-13
435.000      3.82292e-14
436.000      5.84054e-15
437.000      8.44168e-16
438.000      1.15431e-16
439.000      1.49325e-17
440.000      1.82752e-18
441.000      2.11596e-19
442.000      2.31778e-20
443.000      2.40189e-21
444.000      2.35479e-22
445.000      2.18408e-23
446.000      1.91647e-24
447.000      1.59094e-25
448.000      1.24946e-26
449.000      9.28348e-28
450.000      6.52552e-29
451.000      4.33948e-30
452.000      2.73009e-31
453.000      1.62493e-32
454.000      9.14975e-34
455.000      4.87418e-35
456.000      2.45647e-36
457.000      1.17122e-37
458.000      5.28306e-39
459.000      2.25449e-40
460.000      9.10183e-42
461.000      3.47638e-43
462.000      1.25615e-44
463.000      4.29414e-46
464.000      1.38876e-47
465.000      4.24909e-49
466.000      1.22993e-50
467.000      3.36810e-52
468.000      8.72583e-54
469.000      2.13868e-55
470.000      4.95909e-57
471.000      1.08787e-58
472.000      2.25771e-60
473.000      4.43280e-62
474.000      8.23388e-64
475.000      1.44694e-65
476.000      2.40553e-67
477.000      3.78348e-69
478.000      5.62974e-71
479.000      7.92508e-73
480.000      1.05545e-74
481.000      1.32980e-76
482.000      1.58509e-78
483.000      1.78747e-80
484.000      1.90696e-82
485.000      1.92470e-84
486.000      1.83781e-86
487.000      1.66019e-88
488.000      1.41883e-90
489.000      1.14715e-92
490.000      8.77465e-95
491.000      6.34974e-97
492.000      4.34710e-99
493.000     2.81554e-101
494.000     1.72520e-103
495.000     1.00008e-105
496.000     5.48467e-108
497.000     2.84566e-110
498.000     1.39679e-112
499.000     6.48633e-115
500.000     2.84960e-117
