# Gaussian folded, width=10 cm^-1
# [cm^-1] arbitrary
0.000      3.00000e+00
1.000      2.91796e+00
2.000      2.68508e+00
3.000      2.33749e+00
4.000      1.92514e+00
5.000      1.50000e+00
6.000      1.10570e+00
7.000      7.71085e-01
8.000      5.08727e-01
9.000      3.17529e-01
10.000      1.87500e-01
11.000      1.04746e-01
12.000      5.53590e-02
13.000      2.76795e-02
14.000      1.30932e-02
15.000      5.85940e-03
16.000      2.48081e-03
17.000      9.94044e-04
18.000      3.78107e-04
19.000      1.40524e-04
20.000      6.40112e-05
21.000      7.14336e-05
22.000      1.71761e-04
23.000      4.68637e-04
24.000      1.23748e-03
25.000      3.10357e-03
26.000      7.37900e-03
27.000      1.66307e-02
28.000      3.55336e-02
29.000      7.19847e-02
30.000      1.38282e-01
31.000      2.51928e-01
32.000      4.35336e-01
33.000      7.13624e-01
34.000      1.10986e+00
35.000      1.63785e+00
36.000      2.29375e+00
37.000      3.04883e+00
38.000      3.84666e+00
39.000      4.60726e+00
40.000      5.23904e+00
41.000      5.65645e+00
42.000      5.79896e+00
43.000      5.64535e+00
44.000      5.21894e+00
45.000      4.58177e+00
46.000      3.81983e+00
47.000      3.02419e+00
48.000      2.27361e+00
49.000      1.62313e+00
50.000      1.10035e+00
51.000      7.08531e-01
52.000      4.33926e-01
53.000      2.54193e-01
54.000      1.45735e-01
55.000      8.87625e-02
56.000      7.00902e-02
57.000      8.42537e-02
58.000      1.33607e-01
59.000      2.27793e-01
60.000      3.82540e-01
61.000      6.17412e-01
62.000      9.52064e-01
63.000      1.40086e+00
64.000      1.96635e+00
65.000      2.63300e+00
66.000      3.36309e+00
67.000      4.09707e+00
68.000      4.75966e+00
69.000      5.27164e+00
70.000      5.56496e+00
71.000      5.59746e+00
72.000      5.36279e+00
73.000      4.89236e+00
74.000      4.24851e+00
75.000      3.51099e+00
76.000      2.76091e+00
77.000      2.06668e+00
78.000      1.47540e+00
79.000      1.01112e+00
80.000      6.78807e-01
81.000      4.71794e-01
82.000      3.79817e-01
83.000      3.95345e-01
84.000      5.16746e-01
85.000      7.47852e-01
86.000      1.09429e+00
87.000      1.55761e+00
88.000      2.12879e+00
89.000      2.78300e+00
90.000      3.47736e+00
91.000      4.15320e+00
92.000      4.74284e+00
93.000      5.18024e+00
94.000      5.41318e+00
95.000      5.41435e+00
96.000      5.18853e+00
97.000      4.77401e+00
98.000      4.23799e+00
99.000      3.66700e+00
100.000      3.15458e+00
101.000      2.78873e+00
102.000      2.64118e+00
103.000      2.75963e+00
104.000      3.16330e+00
105.000      3.84200e+00
106.000      4.75847e+00
107.000      5.85410e+00
108.000      7.05723e+00
109.000      8.29285e+00
110.000      9.49160e+00
111.000      1.05961e+01
112.000      1.15634e+01
113.000      1.23642e+01
114.000      1.29800e+01
115.000      1.33998e+01
116.000      1.36191e+01
117.000      1.36392e+01
118.000      1.34677e+01
119.000      1.31188e+01
120.000      1.26114e+01
121.000      1.19674e+01
122.000      1.12103e+01
123.000      1.03644e+01
124.000      9.45713e+00
125.000      8.52043e+00
126.000      7.59309e+00
127.000      6.71954e+00
128.000      5.94583e+00
129.000      5.31291e+00
130.000      4.84952e+00
131.000      4.56727e+00
132.000      4.46027e+00
133.000      4.50959e+00
134.000      4.69098e+00
135.000      4.98278e+00
136.000      5.37075e+00
137.000      5.84821e+00
138.000      6.41199e+00
139.000      7.05657e+00
140.000      7.76958e+00
141.000      8.53065e+00
142.000      9.31378e+00
143.000      1.00913e+01
144.000      1.08376e+01
145.000      1.15300e+01
146.000      1.21484e+01
147.000      1.26737e+01
148.000      1.30886e+01
149.000      1.33798e+01
150.000      1.35428e+01
151.000      1.35845e+01
152.000      1.35240e+01
153.000      1.33889e+01
154.000      1.32086e+01
155.000      1.30084e+01
156.000      1.28057e+01
157.000      1.26102e+01
158.000      1.24275e+01
159.000      1.22615e+01
160.000      1.21157e+01
161.000      1.19900e+01
162.000      1.18752e+01
163.000      1.17499e+01
164.000      1.15798e+01
165.000      1.13250e+01
166.000      1.09506e+01
167.000      1.04390e+01
168.000      9.79852e+00
169.000      9.06568e+00
170.000      8.29984e+00
171.000      7.57232e+00
172.000      6.95306e+00
173.000      6.49823e+00
174.000      6.24141e+00
175.000      6.18940e+00
176.000      6.32280e+00
177.000      6.60067e+00
178.000      6.96809e+00
179.000      7.36540e+00
180.000      7.73776e+00
181.000      8.04324e+00
182.000      8.25834e+00
183.000      8.37969e+00
184.000      8.42179e+00
185.000      8.41140e+00
186.000      8.37990e+00
187.000      8.35568e+00
188.000      8.35838e+00
189.000      8.39643e+00
190.000      8.46832e+00
191.000      8.56645e+00
192.000      8.68203e+00
193.000      8.80873e+00
194.000      8.94365e+00
195.000      9.08530e+00
196.000      9.22974e+00
197.000      9.36740e+00
198.000      9.48257e+00
199.000      9.55676e+00
200.000      9.57491e+00
201.000      9.53180e+00
202.000      9.43542e+00
203.000      9.30515e+00
204.000      9.16524e+00
205.000      9.03604e+00
206.000      8.92710e+00
207.000      8.83492e+00
208.000      8.74640e+00
209.000      8.64587e+00
210.000      8.52244e+00
211.000      8.37440e+00
212.000      8.20906e+00
213.000      8.03898e+00
214.000      7.87665e+00
215.000      7.73043e+00
216.000      7.60315e+00
217.000      7.49341e+00
218.000      7.39830e+00
219.000      7.31574e+00
220.000      7.24524e+00
221.000      7.18703e+00
222.000      7.14024e+00
223.000      7.10169e+00
224.000      7.06606e+00
225.000      7.02768e+00
226.000      6.98333e+00
227.000      6.93468e+00
228.000      6.88952e+00
229.000      6.86105e+00
230.000      6.86533e+00
231.000      6.91747e+00
232.000      7.02755e+00
233.000      7.19714e+00
234.000      7.41739e+00
235.000      7.66936e+00
236.000      7.92646e+00
237.000      8.15884e+00
238.000      8.33846e+00
239.000      8.44385e+00
240.000      8.46328e+00
241.000      8.39571e+00
242.000      8.24944e+00
243.000      8.03878e+00
244.000      7.77994e+00
245.000      7.48722e+00
246.000      7.17106e+00
247.000      6.83851e+00
248.000      6.49625e+00
249.000      6.15457e+00
250.000      5.83046e+00
251.000      5.54746e+00
252.000      5.33161e+00
253.000      5.20414e+00
254.000      5.17381e+00
255.000      5.23218e+00
256.000      5.35445e+00
257.000      5.50645e+00
258.000      5.65558e+00
259.000      5.78188e+00
260.000      5.88486e+00
261.000      5.98312e+00
262.000      6.10655e+00
263.000      6.28357e+00
264.000      6.52777e+00
265.000      6.82878e+00
266.000      7.15077e+00
267.000      7.43931e+00
268.000      7.63470e+00
269.000      7.68751e+00
270.000      7.57161e+00
271.000      7.29073e+00
272.000      6.87688e+00
273.000      6.38178e+00
274.000      5.86441e+00
275.000      5.37879e+00
276.000      4.96559e+00
277.000      4.64898e+00
278.000      4.43845e+00
279.000      4.33352e+00
280.000      4.32907e+00
281.000      4.41924e+00
282.000      4.59914e+00
283.000      4.86439e+00
284.000      5.20919e+00
285.000      5.62390e+00
286.000      6.09336e+00
287.000      6.59672e+00
288.000      7.10928e+00
289.000      7.60577e+00
290.000      8.06399e+00
291.000      8.46744e+00
292.000      8.80611e+00
293.000      9.07541e+00
294.000      9.27426e+00
295.000      9.40342e+00
296.000      9.46497e+00
297.000      9.46278e+00
298.000      9.40366e+00
299.000      9.29818e+00
300.000      9.16075e+00
301.000      9.00871e+00
302.000      8.86067e+00
303.000      8.73449e+00
304.000      8.64541e+00
305.000      8.60454e+00
306.000      8.61829e+00
307.000      8.68845e+00
308.000      8.81294e+00
309.000      8.98645e+00
310.000      9.20073e+00
311.000      9.44440e+00
312.000      9.70246e+00
313.000      9.95666e+00
314.000      1.01874e+01
315.000      1.03775e+01
316.000      1.05178e+01
317.000      1.06122e+01
318.000      1.06807e+01
319.000      1.07580e+01
320.000      1.08871e+01
321.000      1.11098e+01
322.000      1.14559e+01
323.000      1.19356e+01
324.000      1.25363e+01
325.000      1.32266e+01
326.000      1.39633e+01
327.000      1.47001e+01
328.000      1.53951e+01
329.000      1.60140e+01
330.000      1.65312e+01
331.000      1.69290e+01
332.000      1.71979e+01
333.000      1.73378e+01
334.000      1.73601e+01
335.000      1.72886e+01
336.000      1.71570e+01
337.000      1.70045e+01
338.000      1.68691e+01
339.000      1.67826e+01
340.000      1.67690e+01
341.000      1.68448e+01
342.000      1.70227e+01
343.000      1.73135e+01
344.000      1.77264e+01
345.000      1.82655e+01
346.000      1.89260e+01
347.000      1.96910e+01
348.000      2.05318e+01
349.000      2.14124e+01
350.000      2.22964e+01
351.000      2.31539e+01
352.000      2.39640e+01
353.000      2.47122e+01
354.000      2.53833e+01
355.000      2.59535e+01
356.000      2.63861e+01
357.000      2.66336e+01
358.000      2.66475e+01
359.000      2.63911e+01
360.000      2.58521e+01
361.000      2.50482e+01
362.000      2.40246e+01
363.000      2.28435e+01
364.000      2.15688e+01
365.000      2.02524e+01
366.000      1.89251e+01
367.000      1.75953e+01
368.000      1.62568e+01
369.000      1.49005e+01
370.000      1.35283e+01
371.000      1.21623e+01
372.000      1.08480e+01
373.000      9.64980e+00
374.000      8.64034e+00
375.000      7.88729e+00
376.000      7.44157e+00
377.000      7.32981e+00
378.000      7.55271e+00
379.000      8.08903e+00
380.000      8.90325e+00
381.000      9.95422e+00
382.000      1.12017e+01
383.000      1.26083e+01
384.000      1.41358e+01
385.000      1.57373e+01
386.000      1.73463e+01
387.000      1.88694e+01
388.000      2.01848e+01
389.000      2.11513e+01
390.000      2.16279e+01
391.000      2.14999e+01
392.000      2.07074e+01
393.000      1.92647e+01
394.000      1.72664e+01
395.000      1.48755e+01
396.000      1.22962e+01
397.000      9.73850e+00
398.000      7.38419e+00
399.000      5.36290e+00
400.000      3.74248e+00
401.000      2.53350e+00
402.000      1.70351e+00
403.000      1.19493e+00
404.000      9.41272e-01
405.000      8.78487e-01
406.000      9.51022e-01
407.000      1.11373e+00
408.000      1.33151e+00
409.000      1.57822e+00
410.000      1.83544e+00
411.000      2.09127e+00
412.000      2.33877e+00
413.000      2.57434e+00
414.000      2.79590e+00
415.000      3.00155e+00
416.000      3.18850e+00
417.000      3.35250e+00
418.000      3.48717e+00
419.000      3.58358e+00
420.000      3.63010e+00
421.000      3.61340e+00
422.000      3.52078e+00
423.000      3.34382e+00
424.000      3.08216e+00
425.000      2.74614e+00
426.000      2.35698e+00
427.000      1.94400e+00
428.000      1.53981e+00
429.000      1.17476e+00
430.000      8.72533e-01
431.000      6.47733e-01
432.000      5.05709e-01
433.000      4.43787e-01
434.000      4.52901e-01
435.000      5.18923e-01
436.000      6.23590e-01
437.000      7.45526e-01
438.000      8.61970e-01
439.000      9.51504e-01
440.000      9.97390e-01
441.000      9.90585e-01
442.000      9.31323e-01
443.000      8.28578e-01
444.000      6.97472e-01
445.000      5.55463e-01
446.000      4.18513e-01
447.000      2.98320e-01
448.000      2.01175e-01
449.000      1.28347e-01
450.000      7.74664e-02
451.000      4.42343e-02
452.000      2.38959e-02
453.000      1.22125e-02
454.000      5.90476e-03
455.000      2.70096e-03
456.000      1.16883e-03
457.000      4.78525e-04
458.000      1.85342e-04
459.000      6.79141e-05
460.000      2.35431e-05
461.000      7.72123e-06
462.000      2.39566e-06
463.000      7.03207e-07
464.000      1.95280e-07
465.000      5.13039e-08
466.000      1.27515e-08
467.000      2.99839e-09
468.000      6.67011e-10
469.000      1.40377e-10
470.000      2.79496e-11
471.000      5.26470e-12
472.000      9.38187e-13
473.000      1.58169e-13
474.000      2.52274e-14
475.000      3.80664e-15
476.000      5.43410e-16
477.000      7.33890e-17
478.000      9.37674e-18
479.000      1.13342e-18
480.000      1.29613e-19
481.000      1.40224e-20
482.000      1.43520e-21
483.000      1.38970e-22
484.000      1.27306e-23
485.000      1.10330e-24
486.000      9.04596e-26
487.000      7.01672e-27
488.000      5.14910e-28
489.000      3.57475e-29
490.000      2.34789e-30
491.000      1.45891e-31
492.000      8.57622e-33
493.000      4.76959e-34
494.000      2.50948e-35
495.000      1.24912e-36
496.000      5.88223e-38
497.000      2.62058e-39
498.000      1.10451e-40
499.000      4.40415e-42
500.000      1.66138e-43
