# Gaussian folded, width=10 cm^-1
# [cm^-1] arbitrary
0.000      3.00000e+00
1.000      2.91796e+00
2.000      2.68508e+00
3.000      2.33749e+00
4.000      1.92514e+00
5.000      1.50000e+00
6.000      1.10570e+00
7.000      7.71085e-01
8.000      5.08727e-01
9.000      3.17529e-01
10.000      1.87500e-01
11.000      1.04746e-01
12.000      5.53591e-02
13.000      2.76796e-02
14.000      1.30936e-02
15.000      5.86071e-03
16.000      2.48535e-03
17.000      1.00891e-03
18.000      4.24256e-04
19.000      2.76255e-04
20.000      4.42119e-04
21.000      1.06899e-03
22.000      2.66397e-03
23.000      6.36379e-03
24.000      1.44374e-02
25.000      3.10738e-02
26.000      6.34465e-02
27.000      1.22902e-01
28.000      2.25881e-01
29.000      3.93920e-01
30.000      6.51890e-01
31.000      1.02379e+00
32.000      1.52596e+00
33.000      2.15877e+00
34.000      2.89884e+00
35.000      3.69506e+00
36.000      4.47118e+00
37.000      5.13624e+00
38.000      5.60159e+00
39.000      5.80012e+00
40.000      5.70211e+00
41.000      5.32253e+00
42.000      4.71730e+00
43.000      3.96978e+00
44.000      3.17211e+00
45.000      2.40693e+00
46.000      1.73464e+00
47.000      1.18837e+00
48.000      7.76340e-01
49.000      4.89038e-01
50.000      3.08351e-01
51.000      2.15872e-01
52.000      1.98956e-01
53.000      2.53921e-01
54.000      3.86406e-01
55.000      6.09084e-01
56.000      9.36996e-01
57.000      1.38103e+00
58.000      1.94059e+00
59.000      2.59725e+00
60.000      3.31136e+00
61.000      4.02352e+00
62.000      4.66166e+00
63.000      5.15268e+00
64.000      5.43609e+00
65.000      5.47613e+00
66.000      5.26903e+00
67.000      4.84342e+00
68.000      4.25398e+00
69.000      3.57025e+00
70.000      2.86387e+00
71.000      2.19739e+00
72.000      1.61719e+00
73.000      1.15144e+00
74.000      8.12617e-01
75.000      6.03022e-01
76.000      5.20996e-01
77.000      5.65885e-01
78.000      7.40119e-01
79.000      1.04775e+00
80.000      1.48975e+00
81.000      2.05737e+00
82.000      2.72580e+00
83.000      3.45050e+00
84.000      4.16847e+00
85.000      4.80534e+00
86.000      5.28768e+00
87.000      5.55782e+00
88.000      5.58781e+00
89.000      5.38853e+00
90.000      5.01150e+00
91.000      4.54269e+00
92.000      4.08970e+00
93.000      3.76514e+00
94.000      3.66934e+00
95.000      3.87548e+00
96.000      4.41894e+00
97.000      5.29211e+00
98.000      6.44533e+00
99.000      7.79380e+00
100.000      9.22989e+00
101.000      1.06390e+01
102.000      1.19159e+01
103.000      1.29787e+01
104.000      1.37766e+01
105.000      1.42911e+01
106.000      1.45309e+01
107.000      1.45220e+01
108.000      1.42984e+01
109.000      1.38936e+01
110.000      1.33367e+01
111.000      1.26520e+01
112.000      1.18611e+01
113.000      1.09866e+01
114.000      1.00556e+01
115.000      9.10115e+00
116.000      8.16235e+00
117.000      7.28115e+00
118.000      6.49815e+00
119.000      5.84772e+00
120.000      5.35455e+00
121.000      5.03279e+00
122.000      4.88823e+00
123.000      4.92238e+00
124.000      5.13675e+00
125.000      5.53485e+00
126.000      6.12081e+00
127.000      6.89449e+00
128.000      7.84474e+00
129.000      8.94314e+00
130.000      1.01410e+01
131.000      1.13711e+01
132.000      1.25549e+01
133.000      1.36133e+01
134.000      1.44798e+01
135.000      1.51111e+01
136.000      1.54939e+01
137.000      1.56445e+01
138.000      1.56032e+01
139.000      1.54231e+01
140.000      1.51586e+01
141.000      1.48562e+01
142.000      1.45485e+01
143.000      1.42537e+01
144.000      1.39771e+01
145.000      1.37149e+01
146.000      1.34558e+01
147.000      1.31838e+01
148.000      1.28789e+01
149.000      1.25202e+01
150.000      1.20892e+01
151.000      1.15757e+01
152.000      1.09821e+01
153.000      1.03266e+01
154.000      9.64263e+00
155.000      8.97381e+00
156.000      8.36618e+00
157.000      7.85963e+00
158.000      7.48124e+00
159.000      7.24234e+00
160.000      7.14000e+00
161.000      7.16170e+00
162.000      7.29144e+00
163.000      7.51493e+00
164.000      7.82244e+00
165.000      8.20842e+00
166.000      8.66856e+00
167.000      9.19530e+00
168.000      9.77386e+00
169.000      1.03807e+01
170.000      1.09851e+01
171.000      1.15540e+01
172.000      1.20585e+01
173.000      1.24783e+01
174.000      1.28046e+01
175.000      1.30380e+01
176.000      1.31839e+01
177.000      1.32480e+01
178.000      1.32332e+01
179.000      1.31405e+01
180.000      1.29732e+01
181.000      1.27420e+01
182.000      1.24694e+01
183.000      1.21879e+01
184.000      1.19344e+01
185.000      1.17409e+01
186.000      1.16253e+01
187.000      1.15869e+01
188.000      1.16064e+01
189.000      1.16532e+01
190.000      1.16946e+01
191.000      1.17043e+01
192.000      1.16680e+01
193.000      1.15838e+01
194.000      1.14593e+01
195.000      1.13070e+01
196.000      1.11399e+01
197.000      1.09694e+01
198.000      1.08038e+01
199.000      1.06493e+01
200.000      1.05103e+01
201.000      1.03895e+01
202.000      1.02889e+01
203.000      1.02101e+01
204.000      1.01538e+01
205.000      1.01196e+01
206.000      1.01037e+01
207.000      1.00973e+01
208.000      1.00846e+01
209.000      1.00444e+01
210.000      9.95323e+00
211.000      9.79214e+00
212.000      9.55263e+00
213.000      9.24069e+00
214.000      8.87653e+00
215.000      8.49007e+00
216.000      8.11380e+00
217.000      7.77577e+00
218.000      7.49521e+00
219.000      7.28149e+00
220.000      7.13571e+00
221.000      7.05326e+00
222.000      7.02561e+00
223.000      7.04101e+00
224.000      7.08497e+00
225.000      7.14151e+00
226.000      7.19596e+00
227.000      7.23855e+00
228.000      7.26756e+00
229.000      7.29057e+00
230.000      7.32334e+00
231.000      7.38687e+00
232.000      7.50345e+00
233.000      7.69279e+00
234.000      7.96823e+00
235.000      8.33328e+00
236.000      8.77884e+00
237.000      9.28191e+00
238.000      9.80716e+00
239.000      1.03119e+01
240.000      1.07536e+01
241.000      1.10987e+01
242.000      1.13289e+01
243.000      1.14436e+01
244.000      1.14575e+01
245.000      1.13944e+01
246.000      1.12795e+01
247.000      1.11330e+01
248.000      1.09667e+01
249.000      1.07841e+01
250.000      1.05830e+01
251.000      1.03601e+01
252.000      1.01151e+01
253.000      9.85326e+00
254.000      9.58751e+00
255.000      9.33750e+00
256.000      9.12730e+00
257.000      8.98104e+00
258.000      8.91735e+00
259.000      8.94389e+00
260.000      9.05365e+00
261.000      9.22452e+00
262.000      9.42278e+00
263.000      9.60993e+00
264.000      9.75113e+00
265.000      9.82259e+00
266.000      9.81588e+00
267.000      9.73792e+00
268.000      9.60693e+00
269.000      9.44612e+00
270.000      9.27737e+00
271.000      9.11723e+00
272.000      8.97621e+00
273.000      8.86114e+00
274.000      8.77898e+00
275.000      8.73986e+00
276.000      8.75755e+00
277.000      8.84678e+00
278.000      9.01808e+00
279.000      9.27214e+00
280.000      9.59589e+00
281.000      9.96197e+00
282.000      1.03321e+01
283.000      1.06638e+01
284.000      1.09183e+01
285.000      1.10676e+01
286.000      1.11003e+01
287.000      1.10228e+01
288.000      1.08583e+01
289.000      1.06425e+01
290.000      1.04175e+01
291.000      1.02253e+01
292.000      1.01010e+01
293.000      1.00665e+01
294.000      1.01265e+01
295.000      1.02653e+01
296.000      1.04480e+01
297.000      1.06243e+01
298.000      1.07356e+01
299.000      1.07250e+01
300.000      1.05477e+01
301.000      1.01792e+01
302.000      9.62088e+00
303.000      8.90115e+00
304.000      8.07141e+00
305.000      7.19841e+00
306.000      6.35387e+00
307.000      5.60309e+00
308.000      4.99522e+00
309.000      4.55684e+00
310.000      4.29071e+00
311.000      4.17951e+00
312.000      4.19365e+00
313.000      4.30074e+00
314.000      4.47419e+00
315.000      4.69863e+00
316.000      4.97140e+00
317.000      5.30020e+00
318.000      5.69828e+00
319.000      6.17896e+00
320.000      6.75080e+00
321.000      7.41427e+00
322.000      8.15990e+00
323.000      8.96774e+00
324.000      9.80763e+00
325.000      1.06406e+01
326.000      1.14219e+01
327.000      1.21053e+01
328.000      1.26500e+01
329.000      1.30279e+01
330.000      1.32297e+01
331.000      1.32697e+01
332.000      1.31849e+01
333.000      1.30297e+01
334.000      1.28673e+01
335.000      1.27584e+01
336.000      1.27515e+01
337.000      1.28772e+01
338.000      1.31466e+01
339.000      1.35545e+01
340.000      1.40857e+01
341.000      1.47210e+01
342.000      1.54419e+01
343.000      1.62329e+01
344.000      1.70811e+01
345.000      1.79727e+01
346.000      1.88904e+01
347.000      1.98092e+01
348.000      2.06955e+01
349.000      2.15075e+01
350.000      2.21985e+01
351.000      2.27208e+01
352.000      2.30312e+01
353.000      2.30941e+01
354.000      2.28844e+01
355.000      2.23895e+01
356.000      2.16114e+01
357.000      2.05690e+01
358.000      1.93006e+01
359.000      1.78648e+01
360.000      1.63374e+01
361.000      1.48040e+01
362.000      1.33483e+01
363.000      1.20391e+01
364.000      1.09205e+01
365.000      1.00061e+01
366.000      9.28138e+00
367.000      8.71065e+00
368.000      8.24816e+00
369.000      7.84923e+00
370.000      7.47958e+00
371.000      7.12143e+00
372.000      6.77600e+00
373.000      6.46222e+00
374.000      6.21247e+00
375.000      6.06609e+00
376.000      6.06194e+00
377.000      6.23140e+00
378.000      6.59301e+00
379.000      7.14897e+00
380.000      7.88332e+00
381.000      8.76074e+00
382.000      9.72589e+00
383.000      1.07038e+01
384.000      1.16027e+01
385.000      1.23221e+01
386.000      1.27644e+01
387.000      1.28522e+01
388.000      1.25441e+01
389.000      1.18469e+01
390.000      1.08192e+01
391.000      9.56289e+00
392.000      8.20622e+00
393.000      6.87973e+00
394.000      5.69308e+00
395.000      4.71760e+00
396.000      3.97929e+00
397.000      3.46294e+00
398.000      3.12517e+00
399.000      2.91148e+00
400.000      2.77185e+00
401.000      2.67060e+00
402.000      2.58889e+00
403.000      2.52097e+00
404.000      2.46729e+00
405.000      2.42806e+00
406.000      2.39960e+00
407.000      2.37427e+00
408.000      2.34274e+00
409.000      2.29703e+00
410.000      2.23235e+00
411.000      2.14759e+00
412.000      2.04439e+00
413.000      1.92617e+00
414.000      1.79762e+00
415.000      1.66491e+00
416.000      1.53600e+00
417.000      1.42018e+00
418.000      1.32618e+00
419.000      1.25947e+00
420.000      1.21948e+00
421.000      1.19851e+00
422.000      1.18289e+00
423.000      1.15653e+00
424.000      1.10554e+00
425.000      1.02225e+00
426.000      9.07271e-01
427.000      7.68811e-01
428.000      6.19887e-01
429.000      4.74534e-01
430.000      3.44422e-01
431.000      2.36820e-01
432.000      1.54178e-01
433.000      9.50087e-02
434.000      5.54061e-02
435.000      3.05740e-02
436.000      1.59630e-02
437.000      7.88543e-03
438.000      3.68530e-03
439.000      1.62948e-03
440.000      6.81635e-04
441.000      2.69759e-04
442.000      1.01000e-04
443.000      3.57753e-05
444.000      1.19885e-05
445.000      3.80071e-06
446.000      1.13994e-06
447.000      3.23459e-07
448.000      8.68306e-08
449.000      2.20518e-08
450.000      5.29826e-09
451.000      1.20431e-09
452.000      2.58979e-10
453.000      5.26873e-11
454.000      1.01406e-11
455.000      1.84647e-12
456.000      3.18081e-13
457.000      5.18382e-14
458.000      7.99244e-15
459.000      1.16581e-15
460.000      1.60876e-16
461.000      2.10027e-17
462.000      2.59403e-18
463.000      3.03105e-19
464.000      3.35065e-20
465.000      3.50414e-21
466.000      3.46699e-22
467.000      3.24519e-23
468.000      2.87373e-24
469.000      2.40752e-25
470.000      1.90814e-26
471.000      1.43077e-27
472.000      1.01495e-28
473.000      6.81146e-30
474.000      4.32466e-31
475.000      2.59765e-32
476.000      1.47614e-33
477.000      7.93582e-35
478.000      4.03621e-36
479.000      1.94211e-37
480.000      8.84078e-39
481.000      3.80737e-40
482.000      1.55123e-41
483.000      5.97926e-43
484.000      2.18039e-44
485.000      7.52212e-46
486.000      2.45506e-47
487.000      7.58059e-49
488.000      2.21442e-50
489.000      6.11979e-52
490.000      1.60004e-53
491.000      3.95768e-55
492.000      9.26123e-57
493.000      2.05029e-58
494.000      4.29416e-60
495.000      8.50862e-62
496.000      1.59499e-63
497.000      2.82862e-65
498.000      4.74579e-67
499.000      7.53286e-69
500.000      1.13117e-70
