# Gaussian folded, width=10 cm^-1
# [cm^-1] arbitrary
0.000      3.00000e+00
1.000      2.91796e+00
2.000      2.68508e+00
3.000      2.33749e+00
4.000      1.92514e+00
5.000      1.50000e+00
6.000      1.10570e+00
7.000      7.71085e-01
8.000      5.08727e-01
9.000      3.17529e-01
10.000      1.87500e-01
11.000      1.04746e-01
12.000      5.53590e-02
13.000      2.76796e-02
14.000      1.30935e-02
15.000      5.86034e-03
16.000      2.48414e-03
17.000      1.00519e-03
18.000      4.13513e-04
19.000      2.46947e-04
20.000      3.66775e-04
21.000      8.86584e-04
22.000      2.24846e-03
23.000      5.47401e-03
24.000      1.26486e-02
25.000      2.77029e-02
26.000      5.75054e-02
27.000      1.13137e-01
28.000      2.10978e-01
29.000      3.72923e-01
30.000      6.24843e-01
31.000      9.92446e-01
32.000      1.49431e+00
33.000      2.13297e+00
34.000      2.88634e+00
35.000      3.70285e+00
36.000      4.50354e+00
37.000      5.19285e+00
38.000      5.67660e+00
39.000      5.88302e+00
40.000      5.78010e+00
41.000      5.38378e+00
42.000      4.75385e+00
43.000      3.97924e+00
44.000      3.15751e+00
45.000      2.37514e+00
46.000      1.69400e+00
47.000      1.14646e+00
48.000      7.38463e-01
49.000      4.57728e-01
50.000      2.83590e-01
51.000      1.95744e-01
52.000      1.80393e-01
53.000      2.33421e-01
54.000      3.60774e-01
55.000      5.76316e-01
56.000      8.97362e-01
57.000      1.33816e+00
58.000      1.90215e+00
59.000      2.57448e+00
60.000      3.31717e+00
61.000      4.06911e+00
62.000      4.75241e+00
63.000      5.28481e+00
64.000      5.59563e+00
65.000      5.64101e+00
66.000      5.41404e+00
67.000      4.94649e+00
68.000      4.30165e+00
69.000      3.56036e+00
70.000      2.80480e+00
71.000      2.10431e+00
72.000      1.50699e+00
73.000      1.03807e+00
74.000      7.04170e-01
75.000      5.01006e-01
76.000      4.21715e-01
77.000      4.63230e-01
78.000      6.29040e-01
79.000      9.27592e-01
80.000      1.36656e+00
81.000      1.94436e+00
82.000      2.64131e+00
83.000      3.41354e+00
84.000      4.19286e+00
85.000      4.89425e+00
86.000      5.43045e+00
87.000      5.73061e+00
88.000      5.75786e+00
89.000      5.52064e+00
90.000      5.07458e+00
91.000      4.51444e+00
92.000      3.95884e+00
93.000      3.53175e+00
94.000      3.34483e+00
95.000      3.48305e+00
96.000      3.99436e+00
97.000      4.88355e+00
98.000      6.11038e+00
99.000      7.59268e+00
100.000      9.21535e+00
101.000      1.08453e+01
102.000      1.23502e+01
103.000      1.36178e+01
104.000      1.45701e+01
105.000      1.51706e+01
106.000      1.54219e+01
107.000      1.53554e+01
108.000      1.50187e+01
109.000      1.44629e+01
110.000      1.37350e+01
111.000      1.28754e+01
112.000      1.19201e+01
113.000      1.09042e+01
114.000      9.86596e+00
115.000      8.84616e+00
116.000      7.88582e+00
117.000      7.02108e+00
118.000      6.27827e+00
119.000      5.67148e+00
120.000      5.20411e+00
121.000      4.87440e+00
122.000      4.68331e+00
123.000      4.64139e+00
124.000      4.77154e+00
125.000      5.10541e+00
126.000      5.67365e+00
127.000      6.49284e+00
128.000      7.55336e+00
129.000      8.81292e+00
130.000      1.01982e+01
131.000      1.16147e+01
132.000      1.29618e+01
133.000      1.41490e+01
134.000      1.51088e+01
135.000      1.58042e+01
136.000      1.62300e+01
137.000      1.64091e+01
138.000      1.63848e+01
139.000      1.62121e+01
140.000      1.59471e+01
141.000      1.56379e+01
142.000      1.53175e+01
143.000      1.49994e+01
144.000      1.46788e+01
145.000      1.43373e+01
146.000      1.39509e+01
147.000      1.34985e+01
148.000      1.29681e+01
149.000      1.23607e+01
150.000      1.16903e+01
151.000      1.09813e+01
152.000      1.02655e+01
153.000      9.57746e+00
154.000      8.95056e+00
155.000      8.41236e+00
156.000      7.98083e+00
157.000      7.66189e+00
158.000      7.44941e+00
159.000      7.32799e+00
160.000      7.27818e+00
161.000      7.28254e+00
162.000      7.33066e+00
163.000      7.42183e+00
164.000      7.56435e+00
165.000      7.77213e+00
166.000      8.05950e+00
167.000      8.43562e+00
168.000      8.90000e+00
169.000      9.44021e+00
170.000      1.00323e+01
171.000      1.06442e+01
172.000      1.12405e+01
173.000      1.17884e+01
174.000      1.22623e+01
175.000      1.26454e+01
176.000      1.29302e+01
177.000      1.31158e+01
178.000      1.32056e+01
179.000      1.32051e+01
180.000      1.31207e+01
181.000      1.29591e+01
182.000      1.27271e+01
183.000      1.24313e+01
184.000      1.20791e+01
185.000      1.16792e+01
186.000      1.12444e+01
187.000      1.07936e+01
188.000      1.03533e+01
189.000      9.95554e+00
190.000      9.63311e+00
191.000      9.41289e+00
192.000      9.30894e+00
193.000      9.31869e+00
194.000      9.42346e+00
195.000      9.59358e+00
196.000      9.79604e+00
197.000      1.00022e+01
198.000      1.01930e+01
199.000      1.03596e+01
200.000      1.05010e+01
201.000      1.06184e+01
202.000      1.07098e+01
203.000      1.07667e+01
204.000      1.07743e+01
205.000      1.07154e+01
206.000      1.05756e+01
207.000      1.03491e+01
208.000      1.00418e+01
209.000      9.67099e+00
210.000      9.26259e+00
211.000      8.84696e+00
212.000      8.45472e+00
213.000      8.11329e+00
214.000      7.84405e+00
215.000      7.65999e+00
216.000      7.56381e+00
217.000      7.54729e+00
218.000      7.59281e+00
219.000      7.67737e+00
220.000      7.77853e+00
221.000      7.88069e+00
222.000      7.97954e+00
223.000      8.08316e+00
224.000      8.20926e+00
225.000      8.37936e+00
226.000      8.61169e+00
227.000      8.91514e+00
228.000      9.28565e+00
229.000      9.70625e+00
230.000      1.01503e+01
231.000      1.05873e+01
232.000      1.09882e+01
233.000      1.13301e+01
234.000      1.15976e+01
235.000      1.17810e+01
236.000      1.18742e+01
237.000      1.18735e+01
238.000      1.17794e+01
239.000      1.16008e+01
240.000      1.13589e+01
241.000      1.10875e+01
242.000      1.08285e+01
243.000      1.06213e+01
244.000      1.04930e+01
245.000      1.04502e+01
246.000      1.04786e+01
247.000      1.05487e+01
248.000      1.06257e+01
249.000      1.06785e+01
250.000      1.06854e+01
251.000      1.06343e+01
252.000      1.05208e+01
253.000      1.03453e+01
254.000      1.01126e+01
255.000      9.83429e+00
256.000      9.53180e+00
257.000      9.23726e+00
258.000      8.99058e+00
259.000      8.83182e+00
260.000      8.79108e+00
261.000      8.87923e+00
262.000      9.08318e+00
263.000      9.36756e+00
264.000      9.68283e+00
265.000      9.97708e+00
266.000      1.02077e+01
267.000      1.03497e+01
268.000      1.03977e+01
269.000      1.03632e+01
270.000      1.02669e+01
271.000      1.01316e+01
272.000      9.97544e+00
273.000      9.81004e+00
274.000      9.64103e+00
275.000      9.47173e+00
276.000      9.30717e+00
277.000      9.15688e+00
278.000      9.03490e+00
279.000      8.95695e+00
280.000      8.93558e+00
281.000      8.97519e+00
282.000      9.06928e+00
283.000      9.20126e+00
284.000      9.34907e+00
285.000      9.49209e+00
286.000      9.61738e+00
287.000      9.72287e+00
288.000      9.81589e+00
289.000      9.90753e+00
290.000      1.00052e+01
291.000      1.01065e+01
292.000      1.01964e+01
293.000      1.02501e+01
294.000      1.02378e+01
295.000      1.01330e+01
296.000      9.91736e+00
297.000      9.58412e+00
298.000      9.13703e+00
299.000      8.58787e+00
300.000      7.95374e+00
301.000      7.25594e+00
302.000      6.52087e+00
303.000      5.78155e+00
304.000      5.07811e+00
305.000      4.45518e+00
306.000      3.95603e+00
307.000      3.61476e+00
308.000      3.44911e+00
309.000      3.45696e+00
310.000      3.61804e+00
311.000      3.90059e+00
312.000      4.27066e+00
313.000      4.70061e+00
314.000      5.17399e+00
315.000      5.68535e+00
316.000      6.23596e+00
317.000      6.82771e+00
318.000      7.45785e+00
319.000      8.11649e+00
320.000      8.78711e+00
321.000      9.44908e+00
322.000      1.00806e+01
323.000      1.06608e+01
324.000      1.11708e+01
325.000      1.15934e+01
326.000      1.19144e+01
327.000      1.21239e+01
328.000      1.22190e+01
329.000      1.22062e+01
330.000      1.21032e+01
331.000      1.19373e+01
332.000      1.17424e+01
333.000      1.15550e+01
334.000      1.14095e+01
335.000      1.13371e+01
336.000      1.13643e+01
337.000      1.15144e+01
338.000      1.18071e+01
339.000      1.22577e+01
340.000      1.28743e+01
341.000      1.36561e+01
342.000      1.45911e+01
343.000      1.56566e+01
344.000      1.68201e+01
345.000      1.80411e+01
346.000      1.92737e+01
347.000      2.04683e+01
348.000      2.15751e+01
349.000      2.25463e+01
350.000      2.33399e+01
351.000      2.39217e+01
352.000      2.42664e+01
353.000      2.43578e+01
354.000      2.41888e+01
355.000      2.37605e+01
356.000      2.30827e+01
357.000      2.21745e+01
358.000      2.10641e+01
359.000      1.97882e+01
360.000      1.83897e+01
361.000      1.69150e+01
362.000      1.54114e+01
363.000      1.39243e+01
364.000      1.24957e+01
365.000      1.11634e+01
366.000      9.96052e+00
367.000      8.91415e+00
368.000      8.04505e+00
369.000      7.36606e+00
370.000      6.88070e+00
371.000      6.58196e+00
372.000      6.45202e+00
373.000      6.46379e+00
374.000      6.58458e+00
375.000      6.78199e+00
376.000      7.03046e+00
377.000      7.31676e+00
378.000      7.64173e+00
379.000      8.01701e+00
380.000      8.45679e+00
381.000      8.96644e+00
382.000      9.53179e+00
383.000      1.01126e+01
384.000      1.06437e+01
385.000      1.10441e+01
386.000      1.12331e+01
387.000      1.11488e+01
388.000      1.07644e+01
389.000      1.00962e+01
390.000      9.20184e+00
391.000      8.16783e+00
392.000      7.09155e+00
393.000      6.06203e+00
394.000      5.14598e+00
395.000      4.38169e+00
396.000      3.78108e+00
397.000      3.33705e+00
398.000      3.03210e+00
399.000      2.84517e+00
400.000      2.75515e+00
401.000      2.74139e+00
402.000      2.78290e+00
403.000      2.85763e+00
404.000      2.94288e+00
405.000      3.01667e+00
406.000      3.05962e+00
407.000      3.05668e+00
408.000      2.99824e+00
409.000      2.88082e+00
410.000      2.70730e+00
411.000      2.48691e+00
412.000      2.23488e+00
413.000      1.97120e+00
414.000      1.71829e+00
415.000      1.49758e+00
416.000      1.32539e+00
417.000      1.20927e+00
418.000      1.14596e+00
419.000      1.12187e+00
420.000      1.11626e+00
421.000      1.10644e+00
422.000      1.07337e+00
423.000      1.00607e+00
424.000      9.03392e-01
425.000      7.73107e-01
426.000      6.28599e-01
427.000      4.84723e-01
428.000      3.54118e-01
429.000      2.44948e-01
430.000      1.60369e-01
431.000      9.93585e-02
432.000      5.82471e-02
433.000      3.23073e-02
434.000      1.69538e-02
435.000      8.41716e-03
436.000      3.95356e-03
437.000      1.75684e-03
438.000      7.38581e-04
439.000      2.93753e-04
440.000      1.10531e-04
441.000      3.93465e-05
442.000      1.32509e-05
443.000      4.22184e-06
444.000      1.27255e-06
445.000      3.62884e-07
446.000      9.78986e-08
447.000      2.49864e-08
448.000      6.03321e-09
449.000      1.37820e-09
450.000      2.97845e-10
451.000      6.08959e-11
452.000      1.17789e-11
453.000      2.15544e-12
454.000      3.73152e-13
455.000      6.11159e-14
456.000      9.46977e-15
457.000      1.38817e-15
458.000      1.92515e-16
459.000      2.52582e-17
460.000      3.13515e-18
461.000      3.68155e-19
462.000      4.08999e-20
463.000      4.29864e-21
464.000      4.27422e-22
465.000      4.02070e-23
466.000      3.57818e-24
467.000      3.01260e-25
468.000      2.39960e-26
469.000      1.80823e-27
470.000      1.28909e-28
471.000      8.69429e-30
472.000      5.54755e-31
473.000      3.34878e-32
474.000      1.91244e-33
475.000      1.03326e-34
476.000      5.28136e-36
477.000      2.55388e-37
478.000      1.16835e-38
479.000      5.05666e-40
480.000      2.07048e-41
481.000      8.02042e-43
482.000      2.93928e-44
483.000      1.01906e-45
484.000      3.34256e-47
485.000      1.03723e-48
486.000      3.04501e-50
487.000      8.45707e-52
488.000      2.22213e-53
489.000      5.52376e-55
490.000      1.29903e-56
491.000      2.89015e-58
492.000      6.08330e-60
493.000      1.21137e-61
494.000      2.28208e-63
495.000      4.06727e-65
496.000      6.85791e-67
497.000      1.09395e-68
498.000      1.65091e-70
499.000      2.35704e-72
500.000      3.18366e-74
