# Gaussian folded, width=10 cm^-1
# [cm^-1] arbitrary
0.000      3.00000e+00
1.000      2.91796e+00
2.000      2.68508e+00
3.000      2.33749e+00
4.000      1.92514e+00
5.000      1.50000e+00
6.000      1.10570e+00
7.000      7.71085e-01
8.000      5.08727e-01
9.000      3.17529e-01
10.000      1.87500e-01
11.000      1.04746e-01
12.000      5.53594e-02
13.000      2.76808e-02
14.000      1.30976e-02
15.000      5.87424e-03
16.000      2.52787e-03
17.000      1.13540e-03
18.000      7.80236e-04
19.000      1.22390e-03
20.000      2.82791e-03
21.000      6.74806e-03
22.000      1.54417e-02
23.000      3.35282e-02
24.000      6.89785e-02
25.000      1.34439e-01
26.000      2.48220e-01
27.000      4.34161e-01
28.000      7.19390e-01
29.000      1.12922e+00
30.000      1.67916e+00
31.000      2.36539e+00
32.000      3.15650e+00
33.000      3.99022e+00
34.000      4.77828e+00
35.000      5.42029e+00
36.000      5.82430e+00
37.000      5.92825e+00
38.000      5.71561e+00
39.000      5.21970e+00
40.000      4.51513e+00
41.000      3.69950e+00
42.000      2.87157e+00
43.000      2.11251e+00
44.000      1.47539e+00
45.000      9.83830e-01
46.000      6.38322e-01
47.000      4.26467e-01
48.000      3.33476e-01
49.000      3.50150e-01
50.000      4.76774e-01
51.000      7.22449e-01
52.000      1.10008e+00
53.000      1.61800e+00
54.000      2.27002e+00
55.000      3.02678e+00
56.000      3.83157e+00
57.000      4.60354e+00
58.000      5.24923e+00
59.000      5.68038e+00
60.000      5.83352e+00
61.000      5.68519e+00
62.000      5.25785e+00
63.000      4.61439e+00
64.000      3.84308e+00
65.000      3.03812e+00
66.000      2.28179e+00
67.000      1.63298e+00
68.000      1.12410e+00
69.000      7.65455e-01
70.000      5.54069e-01
71.000      4.83234e-01
72.000      5.49653e-01
73.000      7.56113e-01
74.000      1.10899e+00
75.000      1.61130e+00
76.000      2.25324e+00
77.000      3.00351e+00
78.000      3.80486e+00
79.000      4.57714e+00
80.000      5.22871e+00
81.000      5.67460e+00
82.000      5.85702e+00
83.000      5.76209e+00
84.000      5.42802e+00
85.000      4.94219e+00
86.000      4.42802e+00
87.000      4.02536e+00
88.000      3.86872e+00
89.000      4.06718e+00
90.000      4.68837e+00
91.000      5.74768e+00
92.000      7.20400e+00
93.000      8.96285e+00
94.000      1.08877e+01
95.000      1.28187e+01
96.000      1.45948e+01
97.000      1.60754e+01
98.000      1.71562e+01
99.000      1.77755e+01
100.000      1.79134e+01
101.000      1.75851e+01
102.000      1.68340e+01
103.000      1.57263e+01
104.000      1.43473e+01
105.000      1.27981e+01
106.000      1.11882e+01
107.000      9.62484e+00
108.000      8.19905e+00
109.000      6.97357e+00
110.000      5.97617e+00
111.000      5.20182e+00
112.000      4.62366e+00
113.000      4.20978e+00
114.000      3.94095e+00
115.000      3.82385e+00
116.000      3.89593e+00
117.000      4.22007e+00
118.000      4.86960e+00
119.000      5.90692e+00
120.000      7.36042e+00
121.000      9.20549e+00
122.000      1.13551e+01
123.000      1.36638e+01
124.000      1.59455e+01
125.000      1.80023e+01
126.000      1.96582e+01
127.000      2.07885e+01
128.000      2.13396e+01
129.000      2.13333e+01
130.000      2.08563e+01
131.000      2.00373e+01
132.000      1.90191e+01
133.000      1.79308e+01
134.000      1.68675e+01
135.000      1.58802e+01
136.000      1.49772e+01
137.000      1.41351e+01
138.000      1.33158e+01
139.000      1.24851e+01
140.000      1.16271e+01
141.000      1.07535e+01
142.000      9.90386e+00
143.000      9.13817e+00
144.000      8.52339e+00
145.000      8.11659e+00
146.000      7.94947e+00
147.000      8.01849e+00
148.000      8.28364e+00
149.000      8.67644e+00
150.000      9.11502e+00
151.000      9.52159e+00
152.000      9.83761e+00
153.000      1.00326e+01
154.000      1.01053e+01
155.000      1.00787e+01
156.000      9.99101e+00
157.000      9.88593e+00
158.000      9.80441e+00
159.000      9.77850e+00
160.000      9.82768e+00
161.000      9.95735e+00
162.000      1.01597e+01
163.000      1.04169e+01
164.000      1.07062e+01
165.000      1.10057e+01
166.000      1.12995e+01
167.000      1.15798e+01
168.000      1.18465e+01
169.000      1.21039e+01
170.000      1.23564e+01
171.000      1.26053e+01
172.000      1.28475e+01
173.000      1.30769e+01
174.000      1.32866e+01
175.000      1.34709e+01
176.000      1.36263e+01
177.000      1.37504e+01
178.000      1.38412e+01
179.000      1.38962e+01
180.000      1.39140e+01
181.000      1.38977e+01
182.000      1.38583e+01
183.000      1.38167e+01
184.000      1.38015e+01
185.000      1.38432e+01
186.000      1.39665e+01
187.000      1.41836e+01
188.000      1.44904e+01
189.000      1.48683e+01
190.000      1.52904e+01
191.000      1.57289e+01
192.000      1.61625e+01
193.000      1.65807e+01
194.000      1.69831e+01
195.000      1.73763e+01
196.000      1.77665e+01
197.000      1.81531e+01
198.000      1.85229e+01
199.000      1.88478e+01
200.000      1.90861e+01
201.000      1.91885e+01
202.000      1.91066e+01
203.000      1.88037e+01
204.000      1.82643e+01
205.000      1.74997e+01
206.000      1.65480e+01
207.000      1.54674e+01
208.000      1.43250e+01
209.000      1.31850e+01
210.000      1.20976e+01
211.000      1.10943e+01
212.000      1.01873e+01
213.000      9.37410e+00
214.000      8.64350e+00
215.000      7.98198e+00
216.000      7.37779e+00
217.000      6.82308e+00
218.000      6.31444e+00
219.000      5.85289e+00
220.000      5.44414e+00
221.000      5.09927e+00
222.000      4.83531e+00
223.000      4.67474e+00
224.000      4.64302e+00
225.000      4.76397e+00
226.000      5.05380e+00
227.000      5.51545e+00
228.000      6.13479e+00
229.000      6.88016e+00
230.000      7.70531e+00
231.000      8.55514e+00
232.000      9.37304e+00
233.000      1.01083e+01
234.000      1.07224e+01
235.000      1.11928e+01
236.000      1.15147e+01
237.000      1.16989e+01
238.000      1.17684e+01
239.000      1.17524e+01
240.000      1.16804e+01
241.000      1.15778e+01
242.000      1.14613e+01
243.000      1.13381e+01
244.000      1.12062e+01
245.000      1.10559e+01
246.000      1.08732e+01
247.000      1.06431e+01
248.000      1.03532e+01
249.000      9.99655e+00
250.000      9.57429e+00
251.000      9.09640e+00
252.000      8.58181e+00
253.000      8.05719e+00
254.000      7.55470e+00
255.000      7.10892e+00
256.000      6.75307e+00
257.000      6.51463e+00
258.000      6.41061e+00
259.000      6.44306e+00
260.000      6.59613e+00
261.000      6.83633e+00
262.000      7.11737e+00
263.000      7.39027e+00
264.000      7.61689e+00
265.000      7.78355e+00
266.000      7.91011e+00
267.000      8.05083e+00
268.000      8.28551e+00
269.000      8.70279e+00
270.000      9.37979e+00
271.000      1.03635e+01
272.000      1.16583e+01
273.000      1.32224e+01
274.000      1.49737e+01
275.000      1.68028e+01
276.000      1.85908e+01
277.000      2.02279e+01
278.000      2.16289e+01
279.000      2.27414e+01
280.000      2.35471e+01
281.000      2.40544e+01
282.000      2.42866e+01
283.000      2.42697e+01
284.000      2.40233e+01
285.000      2.35588e+01
286.000      2.28830e+01
287.000      2.20063e+01
288.000      2.09500e+01
289.000      1.97505e+01
290.000      1.84570e+01
291.000      1.71245e+01
292.000      1.58047e+01
293.000      1.45372e+01
294.000      1.33457e+01
295.000      1.22377e+01
296.000      1.12094e+01
297.000      1.02515e+01
298.000      9.35493e+00
299.000      8.51433e+00
300.000      7.72854e+00
301.000      6.99951e+00
302.000      6.33004e+00
303.000      5.72201e+00
304.000      5.17556e+00
305.000      4.68956e+00
306.000      4.26271e+00
307.000      3.89483e+00
308.000      3.58768e+00
309.000      3.34526e+00
310.000      3.17338e+00
311.000      3.07886e+00
312.000      3.06814e+00
313.000      3.14555e+00
314.000      3.31108e+00
315.000      3.55842e+00
316.000      3.87369e+00
317.000      4.23580e+00
318.000      4.61870e+00
319.000      4.99515e+00
320.000      5.34097e+00
321.000      5.63850e+00
322.000      5.87837e+00
323.000      6.05951e+00
324.000      6.18802e+00
325.000      6.27573e+00
326.000      6.33895e+00
327.000      6.39726e+00
328.000      6.47168e+00
329.000      6.58178e+00
330.000      6.74194e+00
331.000      6.95790e+00
332.000      7.22519e+00
333.000      7.53057e+00
334.000      7.85657e+00
335.000      8.18781e+00
336.000      8.51676e+00
337.000      8.84691e+00
338.000      9.19225e+00
339.000      9.57364e+00
340.000      1.00136e+01
341.000      1.05306e+01
342.000      1.11346e+01
343.000      1.18225e+01
344.000      1.25752e+01
345.000      1.33553e+01
346.000      1.41082e+01
347.000      1.47659e+01
348.000      1.52556e+01
349.000      1.55101e+01
350.000      1.54798e+01
351.000      1.51425e+01
352.000      1.45085e+01
353.000      1.36207e+01
354.000      1.25478e+01
355.000      1.13746e+01
356.000      1.01886e+01
357.000      9.06884e+00
358.000      8.07678e+00
359.000      7.25203e+00
360.000      6.61192e+00
361.000      6.15382e+00
362.000      5.85889e+00
363.000      5.69625e+00
364.000      5.62735e+00
365.000      5.61050e+00
366.000      5.60530e+00
367.000      5.57669e+00
368.000      5.49777e+00
369.000      5.35121e+00
370.000      5.12951e+00
371.000      4.83468e+00
372.000      4.47811e+00
373.000      4.08091e+00
374.000      3.67410e+00
375.000      3.29783e+00
376.000      2.99847e+00
377.000      2.82298e+00
378.000      2.81067e+00
379.000      2.98396e+00
380.000      3.34020e+00
381.000      3.84748e+00
382.000      4.44643e+00
383.000      5.05873e+00
384.000      5.60079e+00
385.000      5.99931e+00
386.000      6.20463e+00
387.000      6.19821e+00
388.000      5.99267e+00
389.000      5.62524e+00
390.000      5.14714e+00
391.000      4.61247e+00
392.000      4.06938e+00
393.000      3.55486e+00
394.000      3.09330e+00
395.000      2.69744e+00
396.000      2.37032e+00
397.000      2.10733e+00
398.000      1.89789e+00
399.000      1.72711e+00
400.000      1.57812e+00
401.000      1.43488e+00
402.000      1.28527e+00
403.000      1.12344e+00
404.000      9.50522e-01
405.000      7.73493e-01
406.000      6.02482e-01
407.000      4.47617e-01
408.000      3.16421e-01
409.000      2.12452e-01
410.000      1.35321e-01
411.000      8.16977e-02
412.000      4.67244e-02
413.000      2.53040e-02
414.000      1.29726e-02
415.000      6.29465e-03
416.000      2.89045e-03
417.000      1.25594e-03
418.000      5.16357e-04
419.000      2.00861e-04
420.000      7.39244e-05
421.000      2.57406e-05
422.000      8.47974e-06
423.000      2.64286e-06
424.000      7.79275e-07
425.000      2.17385e-07
426.000      5.73706e-08
427.000      1.43241e-08
428.000      3.38351e-09
429.000      7.56111e-10
430.000      1.59853e-10
431.000      3.19725e-11
432.000      6.04991e-12
433.000      1.08303e-12
434.000      1.83420e-13
435.000      2.93882e-14
436.000      4.45467e-15
437.000      6.38818e-16
438.000      8.66674e-17
439.000      1.11238e-17
440.000      1.35072e-18
441.000      1.55166e-19
442.000      1.68635e-20
443.000      1.73386e-21
444.000      1.68655e-22
445.000      1.55203e-23
446.000      1.35120e-24
447.000      1.11290e-25
448.000      8.67185e-27
449.000      6.39270e-28
450.000      4.45835e-29
451.000      2.94159e-30
452.000      1.83615e-31
453.000      1.08430e-32
454.000      6.05774e-34
455.000      3.20176e-35
456.000      1.60097e-36
457.000      7.57351e-38
458.000      3.38944e-39
459.000      1.43508e-40
460.000      5.74834e-42
461.000      2.17834e-43
462.000      7.80958e-45
463.000      2.64878e-46
464.000      8.49929e-48
465.000      2.58010e-49
466.000      7.40983e-51
467.000      2.01325e-52
468.000      5.17493e-54
469.000      1.25843e-55
470.000      2.89515e-57
471.000      6.30131e-59
472.000      1.29750e-60
473.000      2.52757e-62
474.000      4.65817e-64
475.000      8.12167e-66
476.000      1.33965e-67
477.000      2.09054e-69
478.000      3.08632e-71
479.000      4.31064e-73
480.000      5.69586e-75
481.000      7.12025e-77
482.000      8.42070e-79
483.000      9.42148e-81
484.000      9.97258e-83
485.000      9.98651e-85
486.000      9.46100e-87
487.000      8.47966e-89
488.000      7.19014e-91
489.000      5.76785e-93
490.000      4.37732e-95
491.000      3.14282e-97
492.000      2.13476e-99
493.000     1.37182e-101
494.000     8.33988e-104
495.000     4.79669e-106
496.000     2.61001e-108
497.000     1.34357e-110
498.000     6.54325e-113
499.000     3.01471e-115
500.000     1.31406e-117
