# Gaussian folded, width=10 cm^-1
# [cm^-1] arbitrary
0.000      3.00000e+00
1.000      2.91796e+00
2.000      2.68508e+00
3.000      2.33749e+00
4.000      1.92514e+00
5.000      1.50000e+00
6.000      1.10570e+00
7.000      7.71085e-01
8.000      5.08727e-01
9.000      3.17529e-01
10.000      1.87500e-01
11.000      1.04746e-01
12.000      5.53590e-02
13.000      2.76795e-02
14.000      1.30932e-02
15.000      5.85940e-03
16.000      2.48080e-03
17.000      9.93986e-04
18.000      3.77909e-04
19.000      1.39888e-04
20.000      6.20871e-05
21.000      6.59544e-05
22.000      1.57089e-04
23.000      4.31729e-04
24.000      1.15035e-03
25.000      2.91084e-03
26.000      6.98030e-03
27.000      1.58611e-02
28.000      3.41522e-02
29.000      6.96898e-02
30.000      1.34779e-01
31.000      2.47066e-01
32.000      4.29327e-01
33.000      7.07274e-01
34.000      1.10473e+00
35.000      1.63621e+00
36.000      2.29819e+00
37.000      3.06154e+00
38.000      3.86858e+00
39.000      4.63734e+00
40.000      5.27400e+00
41.000      5.69129e+00
42.000      5.82811e+00
43.000      5.66414e+00
44.000      5.22481e+00
45.000      4.57483e+00
46.000      3.80259e+00
47.000      3.00065e+00
48.000      2.24806e+00
49.000      1.59912e+00
50.000      1.08017e+00
51.000      6.93125e-01
52.000      4.23192e-01
53.000      2.47464e-01
54.000      1.42228e-01
55.000      8.79220e-02
56.000      7.17907e-02
57.000      8.88733e-02
58.000      1.41967e-01
59.000      2.40936e-01
60.000      4.01297e-01
61.000      6.41749e-01
62.000      9.80295e-01
63.000      1.42895e+00
64.000      1.98770e+00
65.000      2.63900e+00
66.000      3.34481e+00
67.000      4.04775e+00
68.000      4.67744e+00
69.000      5.16148e+00
70.000      5.43891e+00
71.000      5.47267e+00
72.000      5.25775e+00
73.000      4.82239e+00
74.000      4.22211e+00
75.000      3.52816e+00
76.000      2.81393e+00
77.000      2.14283e+00
78.000      1.56057e+00
79.000      1.09288e+00
80.000      7.48319e-01
81.000      5.24130e-01
82.000      4.13199e-01
83.000      4.09837e-01
84.000      5.13087e-01
85.000      7.26845e-01
86.000      1.05686e+00
87.000      1.50540e+00
88.000      2.06492e+00
89.000      2.71258e+00
90.000      3.40749e+00
91.000      4.09221e+00
92.000      4.69906e+00
93.000      5.16051e+00
94.000      5.42178e+00
95.000      5.45265e+00
96.000      5.25568e+00
97.000      4.86863e+00
98.000      4.36029e+00
99.000      3.82081e+00
100.000      3.34835e+00
101.000      3.03497e+00
102.000      2.95380e+00
103.000      3.14939e+00
104.000      3.63207e+00
105.000      4.37695e+00
106.000      5.32792e+00
107.000      6.40640e+00
108.000      7.52392e+00
109.000      8.59621e+00
110.000      9.55574e+00
111.000      1.03597e+01
112.000      1.09914e+01
113.000      1.14563e+01
114.000      1.17736e+01
115.000      1.19674e+01
116.000      1.20604e+01
117.000      1.20701e+01
118.000      1.20073e+01
119.000      1.18763e+01
120.000      1.16752e+01
121.000      1.13956e+01
122.000      1.10252e+01
123.000      1.05509e+01
124.000      9.96473e+00
125.000      9.27055e+00
126.000      8.48864e+00
127.000      7.65683e+00
128.000      6.82673e+00
129.000      6.05615e+00
130.000      5.39986e+00
131.000      4.90153e+00
132.000      4.58907e+00
133.000      4.47401e+00
134.000      4.55445e+00
135.000      4.81956e+00
136.000      5.25348e+00
137.000      5.83744e+00
138.000      6.54930e+00
139.000      7.36175e+00
140.000      8.24042e+00
141.000      9.14384e+00
142.000      1.00259e+01
143.000      1.08411e+01
144.000      1.15507e+01
145.000      1.21287e+01
146.000      1.25659e+01
147.000      1.28702e+01
148.000      1.30636e+01
149.000      1.31770e+01
150.000      1.32420e+01
151.000      1.32842e+01
152.000      1.33167e+01
153.000      1.33381e+01
154.000      1.33337e+01
155.000      1.32823e+01
156.000      1.31650e+01
157.000      1.29743e+01
158.000      1.27188e+01
159.000      1.24228e+01
160.000      1.21187e+01
161.000      1.18352e+01
162.000      1.15861e+01
163.000      1.13636e+01
164.000      1.11385e+01
165.000      1.08684e+01
166.000      1.05101e+01
167.000      1.00329e+01
168.000      9.42906e+00
169.000      8.71794e+00
170.000      7.94440e+00
171.000      7.17186e+00
172.000      6.47218e+00
173.000      5.91439e+00
174.000      5.55383e+00
175.000      5.42311e+00
176.000      5.52632e+00
177.000      5.83776e+00
178.000      6.30634e+00
179.000      6.86526e+00
180.000      7.44527e+00
181.000      7.98794e+00
182.000      8.45507e+00
183.000      8.83165e+00
184.000      9.12199e+00
185.000      9.34136e+00
186.000      9.50709e+00
187.000      9.63254e+00
188.000      9.72568e+00
189.000      9.79135e+00
190.000      9.83463e+00
191.000      9.86270e+00
192.000      9.88377e+00
193.000      9.90401e+00
194.000      9.92429e+00
195.000      9.93888e+00
196.000      9.93693e+00
197.000      9.90599e+00
198.000      9.83601e+00
199.000      9.72212e+00
200.000      9.56546e+00
201.000      9.37236e+00
202.000      9.15262e+00
203.000      8.91746e+00
204.000      8.67772e+00
205.000      8.44216e+00
206.000      8.21608e+00
207.000      8.00046e+00
208.000      7.79202e+00
209.000      7.58426e+00
210.000      7.36934e+00
211.000      7.14037e+00
212.000      6.89349e+00
213.000      6.62964e+00
214.000      6.35566e+00
215.000      6.08466e+00
216.000      5.83536e+00
217.000      5.62990e+00
218.000      5.49018e+00
219.000      5.43310e+00
220.000      5.46608e+00
221.000      5.58419e+00
222.000      5.77056e+00
223.000      6.00009e+00
224.000      6.24566e+00
225.000      6.48462e+00
226.000      6.70331e+00
227.000      6.89807e+00
228.000      7.07288e+00
229.000      7.23519e+00
230.000      7.39191e+00
231.000      7.54707e+00
232.000      7.70105e+00
233.000      7.85072e+00
234.000      7.98928e+00
235.000      8.10597e+00
236.000      8.18624e+00
237.000      8.21363e+00
238.000      8.17369e+00
239.000      8.05882e+00
240.000      7.87219e+00
241.000      7.62871e+00
242.000      7.35213e+00
243.000      7.06938e+00
244.000      6.80418e+00
245.000      6.57274e+00
246.000      6.38313e+00
247.000      6.23827e+00
248.000      6.14066e+00
249.000      6.09598e+00
250.000      6.11322e+00
251.000      6.20068e+00
252.000      6.35920e+00
253.000      6.57592e+00
254.000      6.82198e+00
255.000      7.05640e+00
256.000      7.23583e+00
257.000      7.32721e+00
258.000      7.31893e+00
259.000      7.22601e+00
260.000      7.08710e+00
261.000      6.95397e+00
262.000      6.87693e+00
263.000      6.89102e+00
264.000      7.00724e+00
265.000      7.21085e+00
266.000      7.46634e+00
267.000      7.72645e+00
268.000      7.94204e+00
269.000      8.07027e+00
270.000      8.08006e+00
271.000      7.95500e+00
272.000      7.69455e+00
273.000      7.31432e+00
274.000      6.84523e+00
275.000      6.33106e+00
276.000      5.82360e+00
277.000      5.37546e+00
278.000      5.03152e+00
279.000      4.82127e+00
280.000      4.75426e+00
281.000      4.82045e+00
282.000      4.99548e+00
283.000      5.24915e+00
284.000      5.55423e+00
285.000      5.89237e+00
286.000      6.25537e+00
287.000      6.64171e+00
288.000      7.05040e+00
289.000      7.47507e+00
290.000      7.90113e+00
291.000      8.30746e+00
292.000      8.67190e+00
293.000      8.97822e+00
294.000      9.22146e+00
295.000      9.40911e+00
296.000      9.55760e+00
297.000      9.68549e+00
298.000      9.80605e+00
299.000      9.92254e+00
300.000      1.00279e+01
301.000      1.01091e+01
302.000      1.01536e+01
303.000      1.01567e+01
304.000      1.01252e+01
305.000      1.00772e+01
306.000      1.00383e+01
307.000      1.00344e+01
308.000      1.00847e+01
309.000      1.01961e+01
310.000      1.03599e+01
311.000      1.05526e+01
312.000      1.07399e+01
313.000      1.08827e+01
314.000      1.09456e+01
315.000      1.09043e+01
316.000      1.07532e+01
317.000      1.05087e+01
318.000      1.02100e+01
319.000      9.91430e+00
320.000      9.68855e+00
321.000      9.59874e+00
322.000      9.69811e+00
323.000      1.00176e+01
324.000      1.05601e+01
325.000      1.12999e+01
326.000      1.21870e+01
327.000      1.31557e+01
328.000      1.41345e+01
329.000      1.50553e+01
330.000      1.58598e+01
331.000      1.65037e+01
332.000      1.69567e+01
333.000      1.72025e+01
334.000      1.72379e+01
335.000      1.70731e+01
336.000      1.67332e+01
337.000      1.62595e+01
338.000      1.57091e+01
339.000      1.51527e+01
340.000      1.46682e+01
341.000      1.43326e+01
342.000      1.42123e+01
343.000      1.43546e+01
344.000      1.47827e+01
345.000      1.54937e+01
346.000      1.64616e+01
347.000      1.76420e+01
348.000      1.89793e+01
349.000      2.04140e+01
350.000      2.18878e+01
351.000      2.33471e+01
352.000      2.47433e+01
353.000      2.60310e+01
354.000      2.71648e+01
355.000      2.80969e+01
356.000      2.87779e+01
357.000      2.91597e+01
358.000      2.92023e+01
359.000      2.88814e+01
360.000      2.81944e+01
361.000      2.71632e+01
362.000      2.58313e+01
363.000      2.42587e+01
364.000      2.25124e+01
365.000      2.06595e+01
366.000      1.87607e+01
367.000      1.68690e+01
368.000      1.50301e+01
369.000      1.32851e+01
370.000      1.16737e+01
371.000      1.02357e+01
372.000      9.01095e+00
373.000      8.03767e+00
374.000      7.34837e+00
375.000      6.96540e+00
376.000      6.89659e+00
377.000      7.13297e+00
378.000      7.64985e+00
379.000      8.41185e+00
380.000      9.38067e+00
381.000      1.05228e+01
382.000      1.18135e+01
383.000      1.32345e+01
384.000      1.47649e+01
385.000      1.63687e+01
386.000      1.79821e+01
387.000      1.95074e+01
388.000      2.08155e+01
389.000      2.17592e+01
390.000      2.21956e+01
391.000      2.20123e+01
392.000      2.11542e+01
393.000      1.96407e+01
394.000      1.75707e+01
395.000      1.51105e+01
396.000      1.24670e+01
397.000      9.85261e+00
398.000      7.45165e+00
399.000      5.39541e+00
400.000      3.75226e+00
401.000      2.53204e+00
402.000      1.70073e+00
403.000      1.19900e+00
404.000      9.59031e-01
405.000      9.16080e-01
406.000      1.01435e+00
407.000      1.20835e+00
408.000      1.46190e+00
409.000      1.74652e+00
410.000      2.04020e+00
411.000      2.32645e+00
412.000      2.59357e+00
413.000      2.83363e+00
414.000      3.04113e+00
415.000      3.21149e+00
416.000      3.33990e+00
417.000      3.42074e+00
418.000      3.44809e+00
419.000      3.41728e+00
420.000      3.32688e+00
421.000      3.18042e+00
422.000      2.98680e+00
423.000      2.75891e+00
424.000      2.51100e+00
425.000      2.25571e+00
426.000      2.00231e+00
427.000      1.75674e+00
428.000      1.52350e+00
429.000      1.30800e+00
430.000      1.11813e+00
431.000      9.63971e-01
432.000      8.55472e-01
433.000      7.99030e-01
434.000      7.94216e-01
435.000      8.32035e-01
436.000      8.95495e-01
437.000      9.62583e-01
438.000      1.01088e+00
439.000      1.02251e+00
440.000      9.87993e-01
441.000      9.07776e-01
442.000      7.91200e-01
443.000      6.53310e-01
444.000      5.10725e-01
445.000      3.77865e-01
446.000      2.64539e-01
447.000      1.75229e-01
448.000      1.09815e-01
449.000      6.51101e-02
450.000      3.65223e-02
451.000      1.93816e-02
452.000      9.73060e-03
453.000      4.62177e-03
454.000      2.07680e-03
455.000      8.82876e-04
456.000      3.55076e-04
457.000      1.35102e-04
458.000      4.86317e-05
459.000      1.65613e-05
460.000      5.33565e-06
461.000      1.62629e-06
462.000      4.68949e-07
463.000      1.27930e-07
464.000      3.30168e-08
465.000      8.06150e-09
466.000      1.86215e-09
467.000      4.06940e-10
468.000      8.41325e-11
469.000      1.64556e-11
470.000      3.04498e-12
471.000      5.33053e-13
472.000      8.82824e-14
473.000      1.38323e-14
474.000      2.05038e-15
475.000      2.87536e-16
476.000      3.81475e-17
477.000      4.78805e-18
478.000      5.68549e-19
479.000      6.38698e-20
480.000      6.78797e-21
481.000      6.82500e-22
482.000      6.49206e-23
483.000      5.84225e-24
484.000      4.97388e-25
485.000      4.00616e-26
486.000      3.05266e-27
487.000      2.20063e-28
488.000      1.50083e-29
489.000      9.68357e-31
490.000      5.91094e-32
491.000      3.41346e-33
492.000      1.86488e-34
493.000      9.63884e-36
494.000      4.71320e-37
495.000      2.18034e-38
496.000      9.54226e-40
497.000      3.95089e-41
498.000      1.54759e-42
499.000      5.73504e-44
500.000      2.01063e-45
