# Gaussian folded, width=10 cm^-1
# [cm^-1] arbitrary
0.000      3.00000e+00
1.000      2.91796e+00
2.000      2.68508e+00
3.000      2.33749e+00
4.000      1.92514e+00
5.000      1.50000e+00
6.000      1.10570e+00
7.000      7.71085e-01
8.000      5.08727e-01
9.000      3.17529e-01
10.000      1.87500e-01
11.000      1.04746e-01
12.000      5.53590e-02
13.000      2.76795e-02
14.000      1.30932e-02
15.000      5.85939e-03
16.000      2.48078e-03
17.000      9.93921e-04
18.000      3.77686e-04
19.000      1.39158e-04
20.000      5.98360e-05
21.000      5.94114e-05
22.000      1.39171e-04
23.000      3.85524e-04
24.000      1.03823e-03
25.000      2.65503e-03
26.000      6.43206e-03
27.000      1.47588e-02
28.000      3.20767e-02
29.000      6.60371e-02
30.000      1.28787e-01
31.000      2.37944e-01
32.000      4.16509e-01
33.000      6.90799e-01
34.000      1.08565e+00
35.000      1.61688e+00
36.000      2.28215e+00
37.000      3.05303e+00
38.000      3.87144e+00
39.000      4.65381e+00
40.000      5.30366e+00
41.000      5.73076e+00
42.000      5.87159e+00
43.000      5.70482e+00
44.000      5.25661e+00
45.000      4.59390e+00
46.000      3.80801e+00
47.000      2.99423e+00
48.000      2.23340e+00
49.000      1.58041e+00
50.000      1.06104e+00
51.000      6.76036e-01
52.000      4.09195e-01
53.000      2.36348e-01
54.000      1.32767e-01
55.000      7.80823e-02
56.000      5.88490e-02
57.000      6.95113e-02
58.000      1.12532e-01
59.000      1.98072e-01
60.000      3.43077e-01
61.000      5.69221e-01
62.000      8.99042e-01
63.000      1.34999e+00
64.000      1.92693e+00
65.000      2.61473e+00
66.000      3.37341e+00
67.000      4.13861e+00
68.000      4.82870e+00
69.000      5.35847e+00
70.000      5.65608e+00
71.000      5.67905e+00
72.000      5.42410e+00
73.000      4.92801e+00
74.000      4.25889e+00
75.000      3.50103e+00
76.000      2.73782e+00
77.000      2.03759e+00
78.000      1.44563e+00
79.000      9.83330e-01
80.000      6.52940e-01
81.000      4.45588e-01
82.000      3.49606e-01
83.000      3.57024e-01
84.000      4.66919e-01
85.000      6.85124e-01
86.000      1.02052e+00
87.000      1.47878e+00
88.000      2.05491e+00
89.000      2.72677e+00
90.000      3.45149e+00
91.000      4.16696e+00
92.000      4.79892e+00
93.000      5.27289e+00
94.000      5.52845e+00
95.000      5.53230e+00
96.000      5.28657e+00
97.000      4.83017e+00
98.000      4.23308e+00
99.000      3.58535e+00
100.000      2.98417e+00
101.000      2.52199e+00
102.000      2.27762e+00
103.000      2.31053e+00
104.000      2.65722e+00
105.000      3.32837e+00
106.000      4.30657e+00
107.000      5.54535e+00
108.000      6.97144e+00
109.000      8.49137e+00
110.000      1.00023e+01
111.000      1.14046e+01
112.000      1.26142e+01
113.000      1.35697e+01
114.000      1.42362e+01
115.000      1.46031e+01
116.000      1.46801e+01
117.000      1.44920e+01
118.000      1.40733e+01
119.000      1.34640e+01
120.000      1.27056e+01
121.000      1.18382e+01
122.000      1.08986e+01
123.000      9.92073e+00
124.000      8.93745e+00
125.000      7.98250e+00
126.000      7.09176e+00
127.000      6.30174e+00
128.000      5.64531e+00
129.000      5.14596e+00
130.000      4.81304e+00
131.000      4.64056e+00
132.000      4.61073e+00
133.000      4.70144e+00
134.000      4.89491e+00
135.000      5.18382e+00
136.000      5.57220e+00
137.000      6.07024e+00
138.000      6.68493e+00
139.000      7.41004e+00
140.000      8.21944e+00
141.000      9.06666e+00
142.000      9.89127e+00
143.000      1.06305e+01
144.000      1.12324e+01
145.000      1.16672e+01
146.000      1.19324e+01
147.000      1.20524e+01
148.000      1.20708e+01
149.000      1.20403e+01
150.000      1.20120e+01
151.000      1.20264e+01
152.000      1.21094e+01
153.000      1.22705e+01
154.000      1.25043e+01
155.000      1.27911e+01
156.000      1.30992e+01
157.000      1.33864e+01
158.000      1.36042e+01
159.000      1.37037e+01
160.000      1.36445e+01
161.000      1.34034e+01
162.000      1.29801e+01
163.000      1.23980e+01
164.000      1.16992e+01
165.000      1.09356e+01
166.000      1.01584e+01
167.000      9.41053e+00
168.000      8.72219e+00
169.000      8.11125e+00
170.000      7.58577e+00
171.000      7.14741e+00
172.000      6.79429e+00
173.000      6.52298e+00
174.000      6.32987e+00
175.000      6.21245e+00
176.000      6.17035e+00
177.000      6.20540e+00
178.000      6.32019e+00
179.000      6.51499e+00
180.000      6.78435e+00
181.000      7.11486e+00
182.000      7.48571e+00
183.000      7.87219e+00
184.000      8.25075e+00
185.000      8.60333e+00
186.000      8.91887e+00
187.000      9.19140e+00
188.000      9.41582e+00
189.000      9.58378e+00
190.000      9.68201e+00
191.000      9.69434e+00
192.000      9.60680e+00
193.000      9.41374e+00
194.000      9.12273e+00
195.000      8.75620e+00
196.000      8.34921e+00
197.000      7.94382e+00
198.000      7.58165e+00
199.000      7.29630e+00
200.000      7.10757e+00
201.000      7.01877e+00
202.000      7.01753e+00
203.000      7.08008e+00
204.000      7.17767e+00
205.000      7.28357e+00
206.000      7.37879e+00
207.000      7.45492e+00
208.000      7.51359e+00
209.000      7.56295e+00
210.000      7.61262e+00
211.000      7.66891e+00
212.000      7.73200e+00
213.000      7.79591e+00
214.000      7.85118e+00
215.000      7.88934e+00
216.000      7.90741e+00
217.000      7.91084e+00
218.000      7.91360e+00
219.000      7.93535e+00
220.000      7.99621e+00
221.000      8.11082e+00
222.000      8.28349e+00
223.000      8.50564e+00
224.000      8.75635e+00
225.000      9.00595e+00
226.000      9.22161e+00
227.000      9.37405e+00
228.000      9.44379e+00
229.000      9.42563e+00
230.000      9.33019e+00
231.000      9.18175e+00
232.000      9.01279e+00
233.000      8.85630e+00
234.000      8.73812e+00
235.000      8.67141e+00
236.000      8.65479e+00
237.000      8.67434e+00
238.000      8.70836e+00
239.000      8.73290e+00
240.000      8.72653e+00
241.000      8.67349e+00
242.000      8.56531e+00
243.000      8.40163e+00
244.000      8.19027e+00
245.000      7.94670e+00
246.000      7.69217e+00
247.000      7.45056e+00
248.000      7.24426e+00
249.000      7.09039e+00
250.000      6.99813e+00
251.000      6.96792e+00
252.000      6.99204e+00
253.000      7.05612e+00
254.000      7.14116e+00
255.000      7.22596e+00
256.000      7.29037e+00
257.000      7.31902e+00
258.000      7.30495e+00
259.000      7.25162e+00
260.000      7.17219e+00
261.000      7.08586e+00
262.000      7.01198e+00
263.000      6.96392e+00
264.000      6.94467e+00
265.000      6.94542e+00
266.000      6.94755e+00
267.000      6.92700e+00
268.000      6.85962e+00
269.000      6.72598e+00
270.000      6.51449e+00
271.000      6.22251e+00
272.000      5.85567e+00
273.000      5.42644e+00
274.000      4.95251e+00
275.000      4.45587e+00
276.000      3.96240e+00
277.000      3.50141e+00
278.000      3.10417e+00
279.000      2.80095e+00
280.000      2.61679e+00
281.000      2.56702e+00
282.000      2.65418e+00
283.000      2.86749e+00
284.000      3.18538e+00
285.000      3.58015e+00
286.000      4.02320e+00
287.000      4.48917e+00
288.000      4.95806e+00
289.000      5.41530e+00
290.000      5.85080e+00
291.000      6.25784e+00
292.000      6.63261e+00
293.000      6.97414e+00
294.000      7.28405e+00
295.000      7.56560e+00
296.000      7.82214e+00
297.000      8.05569e+00
298.000      8.26654e+00
299.000      8.45427e+00
300.000      8.61970e+00
301.000      8.76671e+00
302.000      8.90248e+00
303.000      9.03590e+00
304.000      9.17449e+00
305.000      9.32131e+00
306.000      9.47327e+00
307.000      9.62151e+00
308.000      9.75388e+00
309.000      9.85824e+00
310.000      9.92579e+00
311.000      9.95310e+00
312.000      9.94289e+00
313.000      9.90376e+00
314.000      9.84959e+00
315.000      9.79895e+00
316.000      9.77462e+00
317.000      9.80248e+00
318.000      9.90922e+00
319.000      1.01188e+01
320.000      1.04483e+01
321.000      1.09048e+01
322.000      1.14844e+01
323.000      1.21737e+01
324.000      1.29529e+01
325.000      1.37984e+01
326.000      1.46832e+01
327.000      1.55761e+01
328.000      1.64383e+01
329.000      1.72224e+01
330.000      1.78753e+01
331.000      1.83449e+01
332.000      1.85902e+01
333.000      1.85915e+01
334.000      1.83581e+01
335.000      1.79301e+01
336.000      1.73741e+01
337.000      1.67743e+01
338.000      1.62200e+01
339.000      1.57939e+01
340.000      1.55613e+01
341.000      1.55631e+01
342.000      1.58133e+01
343.000      1.63009e+01
344.000      1.69946e+01
345.000      1.78505e+01
346.000      1.88207e+01
347.000      1.98606e+01
348.000      2.09338e+01
349.000      2.20140e+01
350.000      2.30834e+01
351.000      2.41277e+01
352.000      2.51291e+01
353.000      2.60608e+01
354.000      2.68824e+01
355.000      2.75409e+01
356.000      2.79764e+01
357.000      2.81322e+01
358.000      2.79675e+01
359.000      2.74690e+01
360.000      2.66573e+01
361.000      2.55869e+01
362.000      2.43367e+01
363.000      2.29945e+01
364.000      2.16377e+01
365.000      2.03172e+01
366.000      1.90479e+01
367.000      1.78110e+01
368.000      1.65668e+01
369.000      1.52746e+01
370.000      1.39138e+01
371.000      1.24987e+01
372.000      1.10836e+01
373.000      9.75509e+00
374.000      8.61561e+00
375.000      7.76227e+00
376.000      7.26739e+00
377.000      7.16574e+00
378.000      7.45148e+00
379.000      8.08468e+00
380.000      9.00490e+00
381.000      1.01470e+01
382.000      1.14541e+01
383.000      1.28824e+01
384.000      1.43972e+01
385.000      1.59603e+01
386.000      1.75141e+01
387.000      1.89690e+01
388.000      2.02016e+01
389.000      2.10656e+01
390.000      2.14164e+01
391.000      2.11423e+01
392.000      2.01947e+01
393.000      1.86066e+01
394.000      1.64936e+01
395.000      1.40362e+01
396.000      1.14471e+01
397.000      8.93346e+00
398.000      6.66372e+00
399.000      4.74746e+00
400.000      3.23058e+00
401.000      2.10446e+00
402.000      1.32360e+00
403.000      8.25320e-01
404.000      5.46435e-01
405.000      4.34033e-01
406.000      4.49893e-01
407.000      5.69751e-01
408.000      7.79326e-01
409.000      1.06905e+00
410.000      1.42904e+00
411.000      1.84543e+00
412.000      2.29842e+00
413.000      2.76244e+00
414.000      3.20791e+00
415.000      3.60441e+00
416.000      3.92437e+00
417.000      4.14657e+00
418.000      4.25859e+00
419.000      4.25773e+00
420.000      4.15005e+00
421.000      3.94821e+00
422.000      3.66874e+00
423.000      3.32975e+00
424.000      2.94961e+00
425.000      2.54666e+00
426.000      2.13936e+00
427.000      1.74634e+00
428.000      1.38584e+00
429.000      1.07445e+00
430.000      8.25603e-01
431.000      6.48153e-01
432.000      5.45374e-01
433.000      5.14416e-01
434.000      5.46174e-01
435.000      6.25590e-01
436.000      7.32641e-01
437.000      8.44307e-01
438.000      9.37596e-01
439.000      9.93224e-01
440.000      9.99066e-01
441.000      9.52278e-01
442.000      8.59334e-01
443.000      7.33864e-01
444.000      5.92991e-01
445.000      4.53340e-01
446.000      3.27892e-01
447.000      2.24367e-01
448.000      1.45247e-01
449.000      8.89561e-02
450.000      5.15420e-02
451.000      2.82530e-02
452.000      1.46516e-02
453.000      7.18827e-03
454.000      3.33642e-03
455.000      1.46506e-03
456.000      6.08620e-04
457.000      2.39197e-04
458.000      8.89369e-05
459.000      3.12843e-05
460.000      1.04109e-05
461.000      3.27769e-06
462.000      9.76259e-07
463.000      2.75093e-07
464.000      7.33352e-08
465.000      1.84953e-08
466.000      4.41296e-09
467.000      9.96127e-10
468.000      2.12725e-10
469.000      4.29772e-11
470.000      8.21440e-12
471.000      1.48536e-12
472.000      2.54100e-13
473.000      4.11240e-14
474.000      6.29657e-15
475.000      9.12073e-16
476.000      1.24989e-16
477.000      1.62045e-17
478.000      1.98753e-18
479.000      2.30627e-19
480.000      2.53177e-20
481.000      2.62939e-21
482.000      2.58348e-22
483.000      2.40144e-23
484.000      2.11181e-24
485.000      1.75694e-25
486.000      1.38286e-26
487.000      1.02971e-27
488.000      7.25386e-29
489.000      4.83439e-30
490.000      3.04811e-31
491.000      1.81819e-32
492.000      1.02604e-33
493.000      5.47781e-35
494.000      2.76673e-36
495.000      1.32204e-37
496.000      5.97641e-39
497.000      2.55596e-40
498.000      1.03415e-41
499.000      3.95852e-43
500.000      1.43350e-44
