# Gaussian folded, width=10 cm^-1
# [cm^-1] arbitrary
0.000      3.00000e+00
1.000      2.91796e+00
2.000      2.68508e+00
3.000      2.33749e+00
4.000      1.92514e+00
5.000      1.50000e+00
6.000      1.10570e+00
7.000      7.71085e-01
8.000      5.08727e-01
9.000      3.17529e-01
10.000      1.87500e-01
11.000      1.04746e-01
12.000      5.53590e-02
13.000      2.76795e-02
14.000      1.30932e-02
15.000      5.85939e-03
16.000      2.48078e-03
17.000      9.93919e-04
18.000      3.77671e-04
19.000      1.39093e-04
20.000      5.95803e-05
21.000      5.85029e-05
22.000      1.36207e-04
23.000      3.76580e-04
24.000      1.01319e-03
25.000      2.58981e-03
26.000      6.27381e-03
27.000      1.44009e-02
28.000      3.13218e-02
29.000      6.45535e-02
30.000      1.26073e-01
31.000      2.33331e-01
32.000      4.09243e-01
33.000      6.80241e-01
34.000      1.07159e+00
35.000      1.59990e+00
36.000      2.26393e+00
37.000      3.03632e+00
38.000      3.85971e+00
39.000      4.65040e+00
40.000      5.31078e+00
41.000      5.74860e+00
42.000      5.89798e+00
43.000      5.73562e+00
44.000      5.28679e+00
45.000      4.61885e+00
46.000      3.82474e+00
47.000      3.00184e+00
48.000      2.23298e+00
49.000      1.57431e+00
50.000      1.05200e+00
51.000      6.66437e-01
52.000      4.00674e-01
53.000      2.29734e-01
54.000      1.28277e-01
55.000      7.56262e-02
56.000      5.83214e-02
57.000      7.10228e-02
58.000      1.16557e-01
59.000      2.05508e-01
60.000      3.55217e-01
61.000      5.87597e-01
62.000      9.25135e-01
63.000      1.38479e+00
64.000      1.97043e+00
65.000      2.66541e+00
66.000      3.42804e+00
67.000      4.19227e+00
68.000      4.87546e+00
69.000      5.39236e+00
70.000      5.67233e+00
71.000      5.67517e+00
72.000      5.40054e+00
73.000      4.88802e+00
74.000      4.20783e+00
75.000      3.44515e+00
76.000      2.68294e+00
77.000      1.98809e+00
78.000      1.40390e+00
79.000      9.49653e-01
80.000      6.25863e-01
81.000      4.22448e-01
82.000      3.27183e-01
83.000      3.32270e-01
84.000      4.37745e-01
85.000      6.51210e-01
86.000      9.83988e-01
87.000      1.44439e+00
88.000      2.02951e+00
89.000      2.71773e+00
90.000      3.46453e+00
91.000      4.20389e+00
92.000      4.85634e+00
93.000      5.34254e+00
94.000      5.59945e+00
95.000      5.59459e+00
96.000      5.33452e+00
97.000      4.86504e+00
98.000      4.26355e+00
99.000      3.62613e+00
100.000      3.05301e+00
101.000      2.63590e+00
102.000      2.44889e+00
103.000      2.54311e+00
104.000      2.94399e+00
105.000      3.64994e+00
106.000      4.63204e+00
107.000      5.83538e+00
108.000      7.18309e+00
109.000      8.58402e+00
110.000      9.94357e+00
111.000      1.11760e+01
112.000      1.22151e+01
113.000      1.30207e+01
114.000      1.35792e+01
115.000      1.38982e+01
116.000      1.39977e+01
117.000      1.39011e+01
118.000      1.36286e+01
119.000      1.31957e+01
120.000      1.26153e+01
121.000      1.19015e+01
122.000      1.10746e+01
123.000      1.01627e+01
124.000      9.20227e+00
125.000      8.23612e+00
126.000      7.31008e+00
127.000      6.46899e+00
128.000      5.75206e+00
129.000      5.18824e+00
130.000      4.79276e+00
131.000      4.56615e+00
132.000      4.49665e+00
133.000      4.56540e+00
134.000      4.75265e+00
135.000      5.04231e+00
136.000      5.42316e+00
137.000      5.88669e+00
138.000      6.42345e+00
139.000      7.02055e+00
140.000      7.66195e+00
141.000      8.33140e+00
142.000      9.01587e+00
143.000      9.70720e+00
144.000      1.04004e+01
145.000      1.10895e+01
146.000      1.17627e+01
147.000      1.23997e+01
148.000      1.29731e+01
149.000      1.34526e+01
150.000      1.38113e+01
151.000      1.40315e+01
152.000      1.41094e+01
153.000      1.40556e+01
154.000      1.38939e+01
155.000      1.36576e+01
156.000      1.33837e+01
157.000      1.31074e+01
158.000      1.28557e+01
159.000      1.26432e+01
160.000      1.24685e+01
161.000      1.23143e+01
162.000      1.21497e+01
163.000      1.19349e+01
164.000      1.16283e+01
165.000      1.11949e+01
166.000      1.06148e+01
167.000      9.88942e+00
168.000      9.04554e+00
169.000      8.13445e+00
170.000      7.22612e+00
171.000      6.39902e+00
172.000      5.72743e+00
173.000      5.26914e+00
174.000      5.05633e+00
175.000      5.09176e+00
176.000      5.35050e+00
177.000      5.78637e+00
178.000      6.34106e+00
179.000      6.95394e+00
180.000      7.57063e+00
181.000      8.14922e+00
182.000      8.66310e+00
183.000      9.10023e+00
184.000      9.45928e+00
185.000      9.74390e+00
186.000      9.95709e+00
187.000      1.00977e+01
188.000      1.01603e+01
189.000      1.01378e+01
190.000      1.00264e+01
191.000      9.82966e+00
192.000      9.56066e+00
193.000      9.24145e+00
194.000      8.89931e+00
195.000      8.56155e+00
196.000      8.25020e+00
197.000      7.97817e+00
198.000      7.74814e+00
199.000      7.55426e+00
200.000      7.38619e+00
201.000      7.23383e+00
202.000      7.09120e+00
203.000      6.95805e+00
204.000      6.83907e+00
205.000      6.74114e+00
206.000      6.66998e+00
207.000      6.62731e+00
208.000      6.60966e+00
209.000      6.60899e+00
210.000      6.61503e+00
211.000      6.61862e+00
212.000      6.61529e+00
213.000      6.60787e+00
214.000      6.60750e+00
215.000      6.63223e+00
216.000      6.70335e+00
217.000      6.84015e+00
218.000      7.05445e+00
219.000      7.34652e+00
220.000      7.70388e+00
221.000      8.10370e+00
222.000      8.51815e+00
223.000      8.92125e+00
224.000      9.29486e+00
225.000      9.63145e+00
226.000      9.93262e+00
227.000      1.02037e+01
228.000      1.04470e+01
229.000      1.06558e+01
230.000      1.08134e+01
231.000      1.08967e+01
232.000      1.08835e+01
233.000      1.07605e+01
234.000      1.05288e+01
235.000      1.02047e+01
236.000      9.81506e+00
237.000      9.39117e+00
238.000      8.96158e+00
239.000      8.54797e+00
240.000      8.16438e+00
241.000      7.81951e+00
242.000      7.52040e+00
243.000      7.27542e+00
244.000      7.09506e+00
245.000      6.99005e+00
246.000      6.96755e+00
247.000      7.02701e+00
248.000      7.15730e+00
249.000      7.33662e+00
250.000      7.53536e+00
251.000      7.72115e+00
252.000      7.86502e+00
253.000      7.94673e+00
254.000      7.95828e+00
255.000      7.90440e+00
256.000      7.80020e+00
257.000      7.66620e+00
258.000      7.52222e+00
259.000      7.38158e+00
260.000      7.24749e+00
261.000      7.11258e+00
262.000      6.96191e+00
263.000      6.77825e+00
264.000      6.54804e+00
265.000      6.26593e+00
266.000      5.93647e+00
267.000      5.57284e+00
268.000      5.19322e+00
269.000      4.81641e+00
270.000      4.45809e+00
271.000      4.12871e+00
272.000      3.83302e+00
273.000      3.57095e+00
274.000      3.33932e+00
275.000      3.13398e+00
276.000      2.95252e+00
277.000      2.79708e+00
278.000      2.67701e+00
279.000      2.61001e+00
280.000      2.62101e+00
281.000      2.73787e+00
282.000      2.98458e+00
283.000      3.37322e+00
284.000      3.89733e+00
285.000      4.52891e+00
286.000      5.22065e+00
287.000      5.91342e+00
288.000      6.54740e+00
289.000      7.07372e+00
290.000      7.46382e+00
291.000      7.71377e+00
292.000      7.84306e+00
293.000      7.88848e+00
294.000      7.89524e+00
295.000      7.90759e+00
296.000      7.96091e+00
297.000      8.07648e+00
298.000      8.25932e+00
299.000      8.49915e+00
300.000      8.77390e+00
301.000      9.05500e+00
302.000      9.31304e+00
303.000      9.52259e+00
304.000      9.66525e+00
305.000      9.73086e+00
306.000      9.71784e+00
307.000      9.63339e+00
308.000      9.49410e+00
309.000      9.32613e+00
310.000      9.16362e+00
311.000      9.04418e+00
312.000      9.00187e+00
313.000      9.05949e+00
314.000      9.22312e+00
315.000      9.48124e+00
316.000      9.80909e+00
317.000      1.01771e+01
318.000      1.05603e+01
319.000      1.09458e+01
320.000      1.13355e+01
321.000      1.17448e+01
322.000      1.21957e+01
323.000      1.27086e+01
324.000      1.32940e+01
325.000      1.39473e+01
326.000      1.46464e+01
327.000      1.53550e+01
328.000      1.60279e+01
329.000      1.66188e+01
330.000      1.70864e+01
331.000      1.74007e+01
332.000      1.75460e+01
333.000      1.75230e+01
334.000      1.73502e+01
335.000      1.70635e+01
336.000      1.67150e+01
337.000      1.63691e+01
338.000      1.60955e+01
339.000      1.59591e+01
340.000      1.60106e+01
341.000      1.62768e+01
342.000      1.67574e+01
343.000      1.74269e+01
344.000      1.82423e+01
345.000      1.91535e+01
346.000      2.01147e+01
347.000      2.10904e+01
348.000      2.20578e+01
349.000      2.30035e+01
350.000      2.39181e+01
351.000      2.47899e+01
352.000      2.56006e+01
353.000      2.63222e+01
354.000      2.69169e+01
355.000      2.73385e+01
356.000      2.75371e+01
357.000      2.74666e+01
358.000      2.70954e+01
359.000      2.64169e+01
360.000      2.54581e+01
361.000      2.42803e+01
362.000      2.29713e+01
363.000      2.16289e+01
364.000      2.03395e+01
365.000      1.91583e+01
366.000      1.80970e+01
367.000      1.71240e+01
368.000      1.61775e+01
369.000      1.51880e+01
370.000      1.41047e+01
371.000      1.29159e+01
372.000      1.16587e+01
373.000      1.04140e+01
374.000      9.28889e+00
375.000      8.39226e+00
376.000      7.81171e+00
377.000      7.59755e+00
378.000      7.75850e+00
379.000      8.26842e+00
380.000      9.08021e+00
381.000      1.01409e+01
382.000      1.14026e+01
383.000      1.28247e+01
384.000      1.43682e+01
385.000      1.59836e+01
386.000      1.75977e+01
387.000      1.91054e+01
388.000      2.03716e+01
389.000      2.12438e+01
390.000      2.15770e+01
391.000      2.12634e+01
392.000      2.02606e+01
393.000      1.86089e+01
394.000      1.64320e+01
395.000      1.39179e+01
396.000      1.12859e+01
397.000      8.74739e+00
398.000      6.47207e+00
399.000      4.56728e+00
400.000      3.07406e+00
401.000      1.97772e+00
402.000      1.22697e+00
403.000      7.54711e-01
404.000      4.95210e-01
405.000      3.94642e-01
406.000      4.14998e-01
407.000      5.32748e-01
408.000      7.34430e-01
409.000      1.01122e+00
410.000      1.35405e+00
411.000      1.75035e+00
412.000      2.18267e+00
413.000      2.62916e+00
414.000      3.06544e+00
415.000      3.46685e+00
416.000      3.81070e+00
417.000      4.07772e+00
418.000      4.25292e+00
419.000      4.32584e+00
420.000      4.29076e+00
421.000      4.14727e+00
422.000      3.90105e+00
423.000      3.56477e+00
424.000      3.15827e+00
425.000      2.70774e+00
426.000      2.24347e+00
427.000      1.79654e+00
428.000      1.39520e+00
429.000      1.06180e+00
430.000      8.10785e-01
431.000      6.47967e-01
432.000      5.70815e-01
433.000      5.69245e-01
434.000      6.26697e-01
435.000      7.21554e-01
436.000      8.29196e-01
437.000      9.24918e-01
438.000      9.87485e-01
439.000      1.00260e+00
440.000      9.65241e-01
441.000      8.80034e-01
442.000      7.59406e-01
443.000      6.20085e-01
444.000      4.79054e-01
445.000      3.50148e-01
446.000      2.42127e-01
447.000      1.58401e-01
448.000      9.80368e-02
449.000      5.74037e-02
450.000      3.17986e-02
451.000      1.66646e-02
452.000      8.26225e-03
453.000      3.87543e-03
454.000      1.71972e-03
455.000      7.21963e-04
456.000      2.86741e-04
457.000      1.07741e-04
458.000      3.82993e-05
459.000      1.28801e-05
460.000      4.09791e-06
461.000      1.23346e-06
462.000      3.51240e-07
463.000      9.46241e-08
464.000      2.41167e-08
465.000      5.81500e-09
466.000      1.32648e-09
467.000      2.86265e-10
468.000      5.84458e-11
469.000      1.12890e-11
470.000      2.06289e-12
471.000      3.56628e-13
472.000      5.83272e-14
473.000      9.02494e-15
474.000      1.32110e-15
475.000      1.82955e-16
476.000      2.39701e-17
477.000      2.97108e-18
478.000      3.48398e-19
479.000      3.86505e-20
480.000      4.05650e-21
481.000      4.02778e-22
482.000      3.78353e-23
483.000      3.36238e-24
484.000      2.82692e-25
485.000      2.24853e-26
486.000      1.69200e-27
487.000      1.20454e-28
488.000      8.11257e-30
489.000      5.16908e-31
490.000      3.11592e-32
491.000      1.77695e-33
492.000      9.58703e-35
493.000      4.89339e-36
494.000      2.36294e-37
495.000      1.07948e-38
496.000      4.66543e-40
497.000      1.90760e-41
498.000      7.37906e-43
499.000      2.70042e-44
500.000      9.34933e-46
