# Gaussian folded, width=10 cm^-1
# [cm^-1] arbitrary
0.000      3.00000e+00
1.000      2.91796e+00
2.000      2.68508e+00
3.000      2.33749e+00
4.000      1.92514e+00
5.000      1.50000e+00
6.000      1.10570e+00
7.000      7.71085e-01
8.000      5.08727e-01
9.000      3.17529e-01
10.000      1.87500e-01
11.000      1.04746e-01
12.000      5.53594e-02
13.000      2.76808e-02
14.000      1.30978e-02
15.000      5.87463e-03
16.000      2.52906e-03
17.000      1.13883e-03
18.000      7.89505e-04
19.000      1.24737e-03
20.000      2.88360e-03
21.000      6.87174e-03
22.000      1.56984e-02
23.000      3.40248e-02
24.000      6.98713e-02
25.000      1.35924e-01
26.000      2.50491e-01
27.000      4.37319e-01
28.000      7.23312e-01
29.000      1.13342e+00
30.000      1.68267e+00
31.000      2.36684e+00
32.000      3.15433e+00
33.000      3.98314e+00
34.000      4.76577e+00
35.000      5.40304e+00
36.000      5.80428e+00
37.000      5.90841e+00
38.000      5.69915e+00
39.000      5.20923e+00
40.000      4.51199e+00
41.000      3.70351e+00
42.000      2.88120e+00
43.000      2.12549e+00
44.000      1.48933e+00
45.000      9.96838e-01
46.000      6.49291e-01
47.000      4.35128e-01
48.000      3.40268e-01
49.000      3.55979e-01
50.000      4.82730e-01
51.000      7.29467e-01
52.000      1.10853e+00
53.000      1.62725e+00
54.000      2.27813e+00
55.000      3.03050e+00
56.000      3.82694e+00
57.000      4.58702e+00
58.000      5.21914e+00
59.000      5.63810e+00
60.000      5.78387e+00
61.000      5.63565e+00
62.000      5.21673e+00
63.000      4.58853e+00
64.000      3.83608e+00
65.000      3.04960e+00
66.000      2.30797e+00
67.000      1.66820e+00
68.000      1.16262e+00
69.000      8.02896e-01
70.000      5.88054e-01
71.000      5.13160e-01
72.000      5.75830e-01
73.000      7.78626e-01
74.000      1.12669e+00
75.000      1.62130e+00
76.000      2.25121e+00
77.000      2.98483e+00
78.000      3.76645e+00
79.000      4.51928e+00
80.000      5.15623e+00
81.000      5.59674e+00
82.000      5.78565e+00
83.000      5.70890e+00
84.000      5.40148e+00
85.000      4.94532e+00
86.000      4.45774e+00
87.000      4.07341e+00
88.000      3.92368e+00
89.000      4.11696e+00
90.000      4.72247e+00
91.000      5.75917e+00
92.000      7.19104e+00
93.000      8.92975e+00
94.000      1.08451e+01
95.000      1.27820e+01
96.000      1.45810e+01
97.000      1.60983e+01
98.000      1.72208e+01
99.000      1.78749e+01
100.000      1.80292e+01
101.000      1.76919e+01
102.000      1.69075e+01
103.000      1.57516e+01
104.000      1.43248e+01
105.000      1.27435e+01
106.000      1.11283e+01
107.000      9.58939e+00
108.000      8.21247e+00
109.000      7.04856e+00
110.000      6.11117e+00
111.000      5.38222e+00
112.000      4.82602e+00
113.000      4.40775e+00
114.000      4.11138e+00
115.000      3.95163e+00
116.000      3.97640e+00
117.000      4.25822e+00
118.000      4.87648e+00
119.000      5.89431e+00
120.000      7.33555e+00
121.000      9.16751e+00
122.000      1.12943e+01
123.000      1.35639e+01
124.000      1.57884e+01
125.000      1.77742e+01
126.000      1.93549e+01
127.000      2.04194e+01
128.000      2.09282e+01
129.000      2.09142e+01
130.000      2.04684e+01
131.000      1.97158e+01
132.000      1.87874e+01
133.000      1.77952e+01
134.000      1.68157e+01
135.000      1.58843e+01
136.000      1.50003e+01
137.000      1.41398e+01
138.000      1.32728e+01
139.000      1.23800e+01
140.000      1.14646e+01
141.000      1.05565e+01
142.000      9.70871e+00
143.000      8.98707e+00
144.000      8.45572e+00
145.000      8.16226e+00
146.000      8.12582e+00
147.000      8.33071e+00
148.000      8.72714e+00
149.000      9.23922e+00
150.000      9.77842e+00
151.000      1.02597e+01
152.000      1.06163e+01
153.000      1.08102e+01
154.000      1.08352e+01
155.000      1.07139e+01
156.000      1.04884e+01
157.000      1.02097e+01
158.000      9.92648e+00
159.000      9.67761e+00
160.000      9.48900e+00
161.000      9.37465e+00
162.000      9.34100e+00
163.000      9.39218e+00
164.000      9.53381e+00
165.000      9.77368e+00
166.000      1.01187e+01
167.000      1.05695e+01
168.000      1.11151e+01
169.000      1.17299e+01
170.000      1.23750e+01
171.000      1.30033e+01
172.000      1.35675e+01
173.000      1.40272e+01
174.000      1.43546e+01
175.000      1.45371e+01
176.000      1.45774e+01
177.000      1.44912e+01
178.000      1.43054e+01
179.000      1.40549e+01
180.000      1.37797e+01
181.000      1.35204e+01
182.000      1.33135e+01
183.000      1.31871e+01
184.000      1.31586e+01
185.000      1.32339e+01
186.000      1.34106e+01
187.000      1.36818e+01
188.000      1.40392e+01
189.000      1.44748e+01
190.000      1.49804e+01
191.000      1.55461e+01
192.000      1.61593e+01
193.000      1.68038e+01
194.000      1.74607e+01
195.000      1.81084e+01
196.000      1.87224e+01
197.000      1.92748e+01
198.000      1.97336e+01
199.000      2.00638e+01
200.000      2.02313e+01
201.000      2.02068e+01
202.000      1.99706e+01
203.000      1.95161e+01
204.000      1.88501e+01
205.000      1.79914e+01
206.000      1.69679e+01
207.000      1.58132e+01
208.000      1.45639e+01
209.000      1.32578e+01
210.000      1.19322e+01
211.000      1.06233e+01
212.000      9.36449e+00
213.000      8.18605e+00
214.000      7.11392e+00
215.000      6.16970e+00
216.000      5.37067e+00
217.000      4.72949e+00
218.000      4.25309e+00
219.000      3.94076e+00
220.000      3.78250e+00
221.000      3.75903e+00
222.000      3.84496e+00
223.000      4.01509e+00
224.000      4.25210e+00
225.000      4.55235e+00
226.000      4.92678e+00
227.000      5.39555e+00
228.000      5.97807e+00
229.000      6.68225e+00
230.000      7.49734e+00
231.000      8.39324e+00
232.000      9.32584e+00
233.000      1.02455e+01
234.000      1.11051e+01
235.000      1.18650e+01
236.000      1.24945e+01
237.000      1.29719e+01
238.000      1.32842e+01
239.000      1.34290e+01
240.000      1.34153e+01
241.000      1.32652e+01
242.000      1.30110e+01
243.000      1.26907e+01
244.000      1.23406e+01
245.000      1.19882e+01
246.000      1.16476e+01
247.000      1.13171e+01
248.000      1.09823e+01
249.000      1.06203e+01
250.000      1.02068e+01
251.000      9.72225e+00
252.000      9.15757e+00
253.000      8.51873e+00
254.000      7.82919e+00
255.000      7.12996e+00
256.000      6.47600e+00
257.000      5.92829e+00
258.000      5.54228e+00
259.000      5.35527e+00
260.000      5.37662e+00
261.000      5.58471e+00
262.000      5.93255e+00
263.000      6.36100e+00
264.000      6.81554e+00
265.000      7.26112e+00
266.000      7.69072e+00
267.000      8.12531e+00
268.000      8.60662e+00
269.000      9.18547e+00
270.000      9.90933e+00
271.000      1.08119e+01
272.000      1.19063e+01
273.000      1.31817e+01
274.000      1.46051e+01
275.000      1.61260e+01
276.000      1.76833e+01
277.000      1.92138e+01
278.000      2.06576e+01
279.000      2.19615e+01
280.000      2.30783e+01
281.000      2.39647e+01
282.000      2.45800e+01
283.000      2.48877e+01
284.000      2.48595e+01
285.000      2.44825e+01
286.000      2.37647e+01
287.000      2.27382e+01
288.000      2.14581e+01
289.000      1.99967e+01
290.000      1.84351e+01
291.000      1.68529e+01
292.000      1.53194e+01
293.000      1.38867e+01
294.000      1.25863e+01
295.000      1.14293e+01
296.000      1.04100e+01
297.000      9.51201e+00
298.000      8.71557e+00
299.000      8.00424e+00
300.000      7.36918e+00
301.000      6.80994e+00
302.000      6.33166e+00
303.000      5.93974e+00
304.000      5.63401e+00
305.000      5.40472e+00
306.000      5.23201e+00
307.000      5.08936e+00
308.000      4.94988e+00
309.000      4.79350e+00
310.000      4.61264e+00
311.000      4.41473e+00
312.000      4.22102e+00
313.000      4.06209e+00
314.000      3.97140e+00
315.000      3.97806e+00
316.000      4.10025e+00
317.000      4.34049e+00
318.000      4.68358e+00
319.000      5.09789e+00
320.000      5.54000e+00
321.000      5.96172e+00
322.000      6.31822e+00
323.000      6.57497e+00
324.000      6.71212e+00
325.000      6.72539e+00
326.000      6.62414e+00
327.000      6.42780e+00
328.000      6.16264e+00
329.000      5.85970e+00
330.000      5.55421e+00
331.000      5.28533e+00
332.000      5.09480e+00
333.000      5.02381e+00
334.000      5.10804e+00
335.000      5.37271e+00
336.000      5.82927e+00
337.000      6.47536e+00
338.000      7.29760e+00
339.000      8.27547e+00
340.000      9.38378e+00
341.000      1.05921e+01
342.000      1.18613e+01
343.000      1.31397e+01
344.000      1.43615e+01
345.000      1.54509e+01
346.000      1.63304e+01
347.000      1.69325e+01
348.000      1.72102e+01
349.000      1.71433e+01
350.000      1.67396e+01
351.000      1.60311e+01
352.000      1.50680e+01
353.000      1.39123e+01
354.000      1.26331e+01
355.000      1.13028e+01
356.000      9.99423e+00
357.000      8.77675e+00
358.000      7.71075e+00
359.000      6.84167e+00
360.000      6.19391e+00
361.000      5.76656e+00
362.000      5.53242e+00
363.000      5.44145e+00
364.000      5.42877e+00
365.000      5.42628e+00
366.000      5.37562e+00
367.000      5.23929e+00
368.000      5.00718e+00
369.000      4.69643e+00
370.000      4.34479e+00
371.000      3.99968e+00
372.000      3.70626e+00
373.000      3.49829e+00
374.000      3.39394e+00
375.000      3.39700e+00
376.000      3.50155e+00
377.000      3.69718e+00
378.000      3.97189e+00
379.000      4.31136e+00
380.000      4.69514e+00
381.000      5.09256e+00
382.000      5.46135e+00
383.000      5.75139e+00
384.000      5.91376e+00
385.000      5.91277e+00
386.000      5.73657e+00
387.000      5.40223e+00
388.000      4.95282e+00
389.000      4.44698e+00
390.000      3.94447e+00
391.000      3.49266e+00
392.000      3.11807e+00
393.000      2.82516e+00
394.000      2.60146e+00
395.000      2.42628e+00
396.000      2.27920e+00
397.000      2.14561e+00
398.000      2.01811e+00
399.000      1.89442e+00
400.000      1.77372e+00
401.000      1.65363e+00
402.000      1.52930e+00
403.000      1.39470e+00
404.000      1.24534e+00
405.000      1.08078e+00
406.000      9.05638e-01
407.000      7.28738e-01
408.000      5.60722e-01
409.000      4.11261e-01
410.000      2.86875e-01
411.000      1.90009e-01
412.000      1.19364e-01
413.000      7.10642e-02
414.000      4.00746e-02
415.000      2.13977e-02
416.000      1.08151e-02
417.000      5.17353e-03
418.000      2.34196e-03
419.000      1.00316e-03
420.000      4.06571e-04
421.000      1.55905e-04
422.000      5.65625e-05
423.000      1.94148e-05
424.000      6.30476e-06
425.000      1.93701e-06
426.000      5.63011e-07
427.000      1.54819e-07
428.000      4.02767e-08
429.000      9.91294e-09
430.000      2.30818e-09
431.000      5.08459e-10
432.000      1.05965e-10
433.000      2.08922e-11
434.000      3.89694e-12
435.000      6.87673e-13
436.000      1.14804e-13
437.000      1.81323e-14
438.000      2.70934e-15
439.000      3.82994e-16
440.000      5.12200e-17
441.000      6.48043e-18
442.000      7.75686e-19
443.000      8.78386e-20
444.000      9.41028e-21
445.000      9.53756e-22
446.000      9.14513e-23
447.000      8.29583e-24
448.000      7.11947e-25
449.000      5.78033e-26
450.000      4.43993e-27
451.000      3.22639e-28
452.000      2.21807e-29
453.000      1.44261e-30
454.000      8.87653e-32
455.000      5.16719e-33
456.000      2.84566e-34
457.000      1.48262e-35
458.000      7.30790e-37
459.000      3.40780e-38
460.000      1.50339e-39
461.000      6.27464e-41
462.000      2.47755e-42
463.000      9.25497e-44
464.000      3.27073e-45
465.000      1.09353e-46
466.000      3.45888e-48
467.000      1.03504e-49
468.000      2.93020e-51
469.000      7.84792e-53
470.000      1.98852e-54
471.000      4.76674e-56
472.000      1.08102e-57
473.000      2.31931e-59
474.000      4.70766e-61
475.000      9.03999e-63
476.000      1.64228e-64
477.000      2.82258e-66
478.000      4.58946e-68
479.000      7.05985e-70
480.000      1.02742e-71
481.000      1.41454e-73
482.000      1.84247e-75
483.000      2.27041e-77
484.000      2.64683e-79
485.000      2.91921e-81
486.000      3.04594e-83
487.000      3.00674e-85
488.000      2.80793e-87
489.000      2.48083e-89
490.000      2.07359e-91
491.000      1.63971e-93
492.000      1.22668e-95
493.000      8.68179e-98
494.000     5.81308e-100
495.000     3.68232e-102
496.000     2.20675e-104
497.000     1.25113e-106
498.000     6.71076e-109
499.000     3.40531e-111
500.000     1.63478e-113
