# Gaussian folded, width=10 cm^-1
# [cm^-1] arbitrary
0.000      3.00000e+00
1.000      2.91796e+00
2.000      2.68508e+00
3.000      2.33749e+00
4.000      1.92514e+00
5.000      1.50000e+00
6.000      1.10570e+00
7.000      7.71085e-01
8.000      5.08727e-01
9.000      3.17529e-01
10.000      1.87500e-01
11.000      1.04746e-01
12.000      5.53593e-02
13.000      2.76806e-02
14.000      1.30971e-02
15.000      5.87269e-03
16.000      2.52341e-03
17.000      1.12331e-03
18.000      7.49402e-04
19.000      1.14988e-03
20.000      2.66089e-03
21.000      6.39418e-03
22.000      1.47384e-02
23.000      3.22192e-02
24.000      6.67004e-02
25.000      1.30742e-01
26.000      2.42642e-01
27.000      4.26373e-01
28.000      7.09399e-01
29.000      1.11757e+00
30.000      1.66704e+00
31.000      2.35458e+00
32.000      3.14905e+00
33.000      3.98795e+00
34.000      4.78220e+00
35.000      5.43023e+00
36.000      5.83882e+00
37.000      5.94499e+00
38.000      5.73193e+00
39.000      5.23332e+00
40.000      4.52467e+00
41.000      3.70466e+00
42.000      2.87288e+00
43.000      2.11100e+00
44.000      1.47209e+00
45.000      9.79409e-01
46.000      6.32884e-01
47.000      4.19513e-01
48.000      3.24033e-01
49.000      3.37043e-01
50.000      4.59060e-01
51.000      6.99969e-01
52.000      1.07403e+00
53.000      1.59128e+00
54.000      2.24720e+00
55.000      3.01332e+00
56.000      3.83251e+00
57.000      4.62190e+00
58.000      5.28466e+00
59.000      5.72870e+00
60.000      5.88747e+00
61.000      5.73623e+00
62.000      5.29836e+00
63.000      4.63951e+00
64.000      3.85162e+00
65.000      3.03228e+00
66.000      2.26596e+00
67.000      1.61222e+00
68.000      1.10285e+00
69.000      7.46847e-01
70.000      5.39840e-01
71.000      4.74147e-01
72.000      5.46086e-01
73.000      7.58579e-01
74.000      1.11838e+00
75.000      1.62876e+00
76.000      2.27970e+00
77.000      3.03897e+00
78.000      3.84772e+00
79.000      4.62375e+00
80.000      5.27353e+00
81.000      5.71092e+00
82.000      5.87802e+00
83.000      5.76186e+00
84.000      5.40213e+00
85.000      4.88737e+00
86.000      4.34127e+00
87.000      3.90290e+00
88.000      3.70572e+00
89.000      3.85893e+00
90.000      4.43314e+00
91.000      5.45076e+00
92.000      6.88143e+00
93.000      8.64311e+00
94.000      1.06097e+01
95.000      1.26251e+01
96.000      1.45231e+01
97.000      1.61477e+01
98.000      1.73729e+01
99.000      1.81147e+01
100.000      1.83371e+01
101.000      1.80503e+01
102.000      1.73042e+01
103.000      1.61800e+01
104.000      1.47796e+01
105.000      1.32159e+01
106.000      1.16012e+01
107.000      1.00358e+01
108.000      8.59743e+00
109.000      7.33451e+00
110.000      6.26478e+00
111.000      5.38129e+00
112.000      4.66429e+00
113.000      4.09609e+00
114.000      3.67506e+00
115.000      3.42477e+00
116.000      3.39560e+00
117.000      3.65794e+00
118.000      4.28742e+00
119.000      5.34479e+00
120.000      6.85408e+00
121.000      8.78437e+00
122.000      1.10402e+01
123.000      1.34653e+01
124.000      1.58602e+01
125.000      1.80129e+01
126.000      1.97345e+01
127.000      2.08923e+01
128.000      2.14323e+01
129.000      2.13847e+01
130.000      2.08508e+01
131.000      1.99772e+01
132.000      1.89214e+01
133.000      1.78206e+01
134.000      1.67683e+01
135.000      1.58062e+01
136.000      1.49297e+01
137.000      1.41040e+01
138.000      1.32865e+01
139.000      1.24457e+01
140.000      1.15758e+01
141.000      1.07008e+01
142.000      9.87029e+00
143.000      9.14859e+00
144.000      8.59925e+00
145.000      8.27002e+00
146.000      8.18083e+00
147.000      8.31803e+00
148.000      8.63629e+00
149.000      9.06782e+00
150.000      9.53670e+00
151.000      9.97428e+00
152.000      1.03315e+01
153.000      1.05855e+01
154.000      1.07382e+01
155.000      1.08105e+01
156.000      1.08314e+01
157.000      1.08281e+01
158.000      1.08187e+01
159.000      1.08088e+01
160.000      1.07933e+01
161.000      1.07612e+01
162.000      1.07032e+01
163.000      1.06175e+01
164.000      1.05132e+01
165.000      1.04091e+01
166.000      1.03287e+01
167.000      1.02940e+01
168.000      1.03192e+01
169.000      1.04084e+01
170.000      1.05557e+01
171.000      1.07492e+01
172.000      1.09755e+01
173.000      1.12230e+01
174.000      1.14840e+01
175.000      1.17543e+01
176.000      1.20331e+01
177.000      1.23215e+01
178.000      1.26234e+01
179.000      1.29438e+01
180.000      1.32887e+01
181.000      1.36614e+01
182.000      1.40601e+01
183.000      1.44754e+01
184.000      1.48905e+01
185.000      1.52832e+01
186.000      1.56313e+01
187.000      1.59173e+01
188.000      1.61325e+01
189.000      1.62791e+01
190.000      1.63703e+01
191.000      1.64283e+01
192.000      1.64823e+01
193.000      1.65652e+01
194.000      1.67102e+01
195.000      1.69465e+01
196.000      1.72935e+01
197.000      1.77547e+01
198.000      1.83133e+01
199.000      1.89293e+01
200.000      1.95413e+01
201.000      2.00716e+01
202.000      2.04357e+01
203.000      2.05535e+01
204.000      2.03608e+01
205.000      1.98205e+01
206.000      1.89303e+01
207.000      1.77264e+01
208.000      1.62802e+01
209.000      1.46898e+01
210.000      1.30643e+01
211.000      1.15078e+01
212.000      1.01040e+01
213.000      8.90666e+00
214.000      7.93762e+00
215.000      7.19060e+00
216.000      6.63916e+00
217.000      6.24578e+00
218.000      5.96985e+00
219.000      5.77372e+00
220.000      5.62654e+00
221.000      5.50655e+00
222.000      5.40208e+00
223.000      5.31193e+00
224.000      5.24528e+00
225.000      5.22094e+00
226.000      5.26541e+00
227.000      5.40895e+00
228.000      5.67938e+00
229.000      6.09479e+00
230.000      6.65702e+00
231.000      7.34860e+00
232.000      8.13423e+00
233.000      8.96660e+00
234.000      9.79407e+00
235.000      1.05677e+01
236.000      1.12457e+01
237.000      1.17953e+01
238.000      1.21932e+01
239.000      1.24269e+01
240.000      1.24964e+01
241.000      1.24158e+01
242.000      1.22120e+01
243.000      1.19215e+01
244.000      1.15821e+01
245.000      1.12250e+01
246.000      1.08689e+01
247.000      1.05185e+01
248.000      1.01680e+01
249.000      9.80759e+00
250.000      9.43045e+00
251.000      9.03715e+00
252.000      8.63619e+00
253.000      8.24140e+00
254.000      7.86812e+00
255.000      7.52994e+00
256.000      7.23682e+00
257.000      6.99432e+00
258.000      6.80289e+00
259.000      6.65671e+00
260.000      6.54278e+00
261.000      6.44179e+00
262.000      6.33233e+00
263.000      6.19853e+00
264.000      6.03921e+00
265.000      5.87553e+00
266.000      5.75380e+00
267.000      5.74192e+00
268.000      5.91960e+00
269.000      6.36466e+00
270.000      7.13845e+00
271.000      8.27303e+00
272.000      9.76268e+00
273.000      1.15607e+01
274.000      1.35825e+01
275.000      1.57149e+01
276.000      1.78300e+01
277.000      1.98019e+01
278.000      2.15230e+01
279.000      2.29150e+01
280.000      2.39347e+01
281.000      2.45711e+01
282.000      2.48382e+01
283.000      2.47659e+01
284.000      2.43911e+01
285.000      2.37537e+01
286.000      2.28957e+01
287.000      2.18630e+01
288.000      2.07062e+01
289.000      1.94795e+01
290.000      1.82353e+01
291.000      1.70181e+01
292.000      1.58575e+01
293.000      1.47657e+01
294.000      1.37388e+01
295.000      1.27638e+01
296.000      1.18265e+01
297.000      1.09199e+01
298.000      1.00482e+01
299.000      9.22597e+00
300.000      8.47288e+00
301.000      7.80612e+00
302.000      7.23378e+00
303.000      6.75151e+00
304.000      6.34404e+00
305.000      5.99064e+00
306.000      5.67220e+00
307.000      5.37707e+00
308.000      5.10314e+00
309.000      4.85556e+00
310.000      4.64127e+00
311.000      4.46300e+00
312.000      4.31519e+00
313.000      4.18367e+00
314.000      4.04914e+00
315.000      3.89311e+00
316.000      3.70420e+00
317.000      3.48261e+00
318.000      3.24130e+00
319.000      3.00351e+00
320.000      2.79747e+00
321.000      2.64987e+00
322.000      2.58051e+00
323.000      2.59976e+00
324.000      2.70956e+00
325.000      2.90758e+00
326.000      3.19262e+00
327.000      3.56896e+00
328.000      4.04773e+00
329.000      4.64415e+00
330.000      5.37140e+00
331.000      6.23282e+00
332.000      7.21557e+00
333.000      8.28806e+00
334.000      9.40298e+00
335.000      1.05050e+01
336.000      1.15410e+01
337.000      1.24691e+01
338.000      1.32637e+01
339.000      1.39149e+01
340.000      1.44238e+01
341.000      1.47966e+01
342.000      1.50403e+01
343.000      1.51614e+01
344.000      1.51684e+01
345.000      1.50744e+01
346.000      1.48974e+01
347.000      1.46569e+01
348.000      1.43680e+01
349.000      1.40352e+01
350.000      1.36492e+01
351.000      1.31902e+01
352.000      1.26356e+01
353.000      1.19708e+01
354.000      1.11987e+01
355.000      1.03441e+01
356.000      9.45206e+00
357.000      8.58031e+00
358.000      7.78846e+00
359.000      7.12656e+00
360.000      6.62635e+00
361.000      6.29674e+00
362.000      6.12415e+00
363.000      6.07685e+00
364.000      6.11182e+00
365.000      6.18247e+00
366.000      6.24574e+00
367.000      6.26729e+00
368.000      6.22463e+00
369.000      6.10774e+00
370.000      5.91784e+00
371.000      5.66491e+00
372.000      5.36485e+00
373.000      5.03715e+00
374.000      4.70325e+00
375.000      4.38556e+00
376.000      4.10632e+00
377.000      3.88597e+00
378.000      3.74049e+00
379.000      3.67830e+00
380.000      3.69746e+00
381.000      3.78437e+00
382.000      3.91478e+00
383.000      4.05756e+00
384.000      4.18050e+00
385.000      4.25667e+00
386.000      4.26956e+00
387.000      4.21519e+00
388.000      4.10065e+00
389.000      3.93957e+00
390.000      3.74651e+00
391.000      3.53229e+00
392.000      3.30220e+00
393.000      3.05757e+00
394.000      2.79949e+00
395.000      2.53270e+00
396.000      2.26749e+00
397.000      2.01838e+00
398.000      1.80003e+00
399.000      1.62217e+00
400.000      1.48569e+00
401.000      1.38191e+00
402.000      1.29512e+00
403.000      1.20773e+00
404.000      1.10567e+00
405.000      9.82332e-01
406.000      8.39605e-01
407.000      6.86199e-01
408.000      5.34139e-01
409.000      3.94989e-01
410.000      2.77045e-01
411.000      1.84128e-01
412.000      1.15887e-01
413.000      6.90437e-02
414.000      3.89308e-02
415.000      2.07720e-02
416.000      1.04868e-02
417.000      5.00914e-03
418.000      2.26373e-03
419.000      9.67872e-04
420.000      3.91505e-04
421.000      1.49824e-04
422.000      5.42432e-05
423.000      1.85793e-05
424.000      6.02049e-06
425.000      1.84567e-06
426.000      5.35294e-07
427.000      1.46876e-07
428.000      3.81263e-08
429.000      9.36306e-09
430.000      2.17535e-09
431.000      4.78142e-10
432.000      9.94266e-11
433.000      1.95599e-11
434.000      3.64038e-12
435.000      6.40982e-13
436.000      1.06773e-13
437.000      1.68266e-14
438.000      2.50869e-15
439.000      3.53848e-16
440.000      4.72175e-17
441.000      5.96084e-18
442.000      7.11917e-19
443.000      8.04394e-20
444.000      8.59857e-21
445.000      8.69562e-22
446.000      8.31942e-23
447.000      7.53014e-24
448.000      6.44808e-25
449.000      5.22367e-26
450.000      4.00349e-27
451.000      2.90281e-28
452.000      1.99121e-29
453.000      1.29221e-30
454.000      7.93350e-32
455.000      4.60804e-33
456.000      2.53212e-34
457.000      1.31635e-35
458.000      6.47401e-37
459.000      3.01227e-38
460.000      1.32597e-39
461.000      5.52191e-41
462.000      2.17552e-42
463.000      8.10877e-44
464.000      2.85933e-45
465.000      9.53874e-47
466.000      3.01048e-48
467.000      8.98870e-50
468.000      2.53908e-51
469.000      6.78537e-53
470.000      1.71549e-54
471.000      4.10318e-56
472.000      9.28476e-58
473.000      1.98764e-59
474.000      4.02553e-61
475.000      7.71305e-63
476.000      1.39813e-64
477.000      2.39764e-66
478.000      3.88991e-68
479.000      5.97053e-70
480.000      8.66969e-72
481.000      1.19100e-73
482.000      1.54788e-75
483.000      1.90319e-77
484.000      2.21382e-79
485.000      2.43625e-81
486.000      2.53640e-83
487.000      2.49822e-85
488.000      2.32789e-87
489.000      2.05216e-89
490.000      1.71151e-91
491.000      1.35040e-93
492.000      1.00801e-95
493.000      7.11843e-98
494.000     4.75578e-100
495.000     3.00591e-102
496.000     1.79742e-104
497.000     1.01681e-106
498.000     5.44184e-109
499.000     2.75531e-111
500.000     1.31982e-113
