# Gaussian folded, width=10 cm^-1
# [cm^-1] arbitrary
0.000      3.00000e+00
1.000      2.91796e+00
2.000      2.68508e+00
3.000      2.33749e+00
4.000      1.92514e+00
5.000      1.50000e+00
6.000      1.10570e+00
7.000      7.71085e-01
8.000      5.08727e-01
9.000      3.17529e-01
10.000      1.87500e-01
11.000      1.04746e-01
12.000      5.53593e-02
13.000      2.76807e-02
14.000      1.30973e-02
15.000      5.87331e-03
16.000      2.52515e-03
17.000      1.12794e-03
18.000      7.60941e-04
19.000      1.17681e-03
20.000      2.71961e-03
21.000      6.51353e-03
22.000      1.49638e-02
23.000      3.26126e-02
24.000      6.73308e-02
25.000      1.31658e-01
26.000      2.43824e-01
27.000      4.27667e-01
28.000      7.10458e-01
29.000      1.11783e+00
30.000      1.66578e+00
31.000      2.35108e+00
32.000      3.14284e+00
33.000      3.97907e+00
34.000      4.77137e+00
35.000      5.41880e+00
36.000      5.82854e+00
37.000      5.93755e+00
38.000      5.72850e+00
39.000      5.23428e+00
40.000      4.52954e+00
41.000      3.71228e+00
42.000      2.88183e+00
43.000      2.11998e+00
44.000      1.48019e+00
45.000      9.86306e-01
46.000      6.38830e-01
47.000      4.25289e-01
48.000      3.30859e-01
49.000      3.46458e-01
50.000      4.72717e-01
51.000      7.19280e-01
52.000      1.09964e+00
53.000      1.62244e+00
54.000      2.28125e+00
55.000      3.04564e+00
56.000      3.85710e+00
57.000      4.63271e+00
58.000      5.27735e+00
59.000      5.70222e+00
60.000      5.84482e+00
61.000      5.68396e+00
62.000      5.24495e+00
63.000      4.59308e+00
64.000      3.81793e+00
65.000      3.01357e+00
66.000      2.26098e+00
67.000      1.61717e+00
68.000      1.11276e+00
69.000      7.56691e-01
70.000      5.45244e-01
71.000      4.71511e-01
72.000      5.32490e-01
73.000      7.31736e-01
74.000      1.07693e+00
75.000      1.57290e+00
76.000      2.21199e+00
77.000      2.96484e+00
78.000      3.77530e+00
79.000      4.56277e+00
80.000      5.23339e+00
81.000      5.69849e+00
82.000      5.89592e+00
83.000      5.80804e+00
84.000      5.47080e+00
85.000      4.97139e+00
86.000      4.43497e+00
87.000      4.00456e+00
88.000      3.81871e+00
89.000      3.99108e+00
90.000      4.59415e+00
91.000      5.64823e+00
92.000      7.11633e+00
93.000      8.90607e+00
94.000      1.08794e+01
95.000      1.28700e+01
96.000      1.47058e+01
97.000      1.62328e+01
98.000      1.73339e+01
99.000      1.79408e+01
100.000      1.80362e+01
101.000      1.76487e+01
102.000      1.68426e+01
103.000      1.57065e+01
104.000      1.43426e+01
105.000      1.28560e+01
106.000      1.13463e+01
107.000      9.89836e+00
108.000      8.57518e+00
109.000      7.41375e+00
110.000      6.42515e+00
111.000      5.60064e+00
112.000      4.92280e+00
113.000      4.37941e+00
114.000      3.97620e+00
115.000      3.74435e+00
116.000      3.74017e+00
117.000      4.03596e+00
118.000      4.70343e+00
119.000      5.79335e+00
120.000      7.31556e+00
121.000      9.22453e+00
122.000      1.14147e+01
123.000      1.37279e+01
124.000      1.59736e+01
125.000      1.79575e+01
126.000      1.95136e+01
127.000      2.05315e+01
128.000      2.09730e+01
129.000      2.08743e+01
130.000      2.03336e+01
131.000      1.94869e+01
132.000      1.84802e+01
133.000      1.74417e+01
134.000      1.64611e+01
135.000      1.55797e+01
136.000      1.47922e+01
137.000      1.40592e+01
138.000      1.33269e+01
139.000      1.25489e+01
140.000      1.17048e+01
141.000      1.08110e+01
142.000      9.92011e+00
143.000      9.11098e+00
144.000      8.47047e+00
145.000      8.07218e+00
146.000      7.95726e+00
147.000      8.12245e+00
148.000      8.51867e+00
149.000      9.06071e+00
150.000      9.64575e+00
151.000      1.01754e+01
152.000      1.05754e+01
153.000      1.08072e+01
154.000      1.08701e+01
155.000      1.07933e+01
156.000      1.06235e+01
157.000      1.04107e+01
158.000      1.01981e+01
159.000      1.00164e+01
160.000      9.88476e+00
161.000      9.81396e+00
162.000      9.81154e+00
163.000      9.88463e+00
164.000      1.00404e+01
165.000      1.02834e+01
166.000      1.06118e+01
167.000      1.10139e+01
168.000      1.14665e+01
169.000      1.19373e+01
170.000      1.23893e+01
171.000      1.27871e+01
172.000      1.31032e+01
173.000      1.33226e+01
174.000      1.34447e+01
175.000      1.34830e+01
176.000      1.34621e+01
177.000      1.34126e+01
178.000      1.33660e+01
179.000      1.33492e+01
180.000      1.33814e+01
181.000      1.34726e+01
182.000      1.36244e+01
183.000      1.38330e+01
184.000      1.40910e+01
185.000      1.43888e+01
186.000      1.47155e+01
187.000      1.50587e+01
188.000      1.54054e+01
189.000      1.57429e+01
190.000      1.60614e+01
191.000      1.63550e+01
192.000      1.66228e+01
193.000      1.68677e+01
194.000      1.70948e+01
195.000      1.73082e+01
196.000      1.75074e+01
197.000      1.76847e+01
198.000      1.78230e+01
199.000      1.78967e+01
200.000      1.78754e+01
201.000      1.77296e+01
202.000      1.74376e+01
203.000      1.69905e+01
204.000      1.63940e+01
205.000      1.56659e+01
206.000      1.48316e+01
207.000      1.39191e+01
208.000      1.29550e+01
209.000      1.19642e+01
210.000      1.09705e+01
211.000      9.99768e+00
212.000      9.07001e+00
213.000      8.21222e+00
214.000      7.44865e+00
215.000      6.80289e+00
216.000      6.29750e+00
217.000      5.95286e+00
218.000      5.78430e+00
219.000      5.79749e+00
220.000      5.98360e+00
221.000      6.31644e+00
222.000      6.75402e+00
223.000      7.24500e+00
224.000      7.73874e+00
225.000      8.19587e+00
226.000      8.59580e+00
227.000      8.93893e+00
228.000      9.24303e+00
229.000      9.53537e+00
230.000      9.84336e+00
231.000      1.01865e+01
232.000      1.05713e+01
233.000      1.09902e+01
234.000      1.14232e+01
235.000      1.18417e+01
236.000      1.22131e+01
237.000      1.25060e+01
238.000      1.26940e+01
239.000      1.27603e+01
240.000      1.26998e+01
241.000      1.25205e+01
242.000      1.22426e+01
243.000      1.18959e+01
244.000      1.15153e+01
245.000      1.11350e+01
246.000      1.07828e+01
247.000      1.04740e+01
248.000      1.02074e+01
249.000      9.96461e+00
250.000      9.71221e+00
251.000      9.40976e+00
252.000      9.02056e+00
253.000      8.52379e+00
254.000      7.92420e+00
255.000      7.25593e+00
256.000      6.57847e+00
257.000      5.96511e+00
258.000      5.48658e+00
259.000      5.19424e+00
260.000      5.10747e+00
261.000      5.20894e+00
262.000      5.44941e+00
263.000      5.76132e+00
264.000      6.07807e+00
265.000      6.35415e+00
266.000      6.58067e+00
267.000      6.79174e+00
268.000      7.05929e+00
269.000      7.47728e+00
270.000      8.13914e+00
271.000      9.11434e+00
272.000      1.04301e+01
273.000      1.20627e+01
274.000      1.39401e+01
275.000      1.59540e+01
276.000      1.79787e+01
277.000      1.98909e+01
278.000      2.15858e+01
279.000      2.29876e+01
280.000      2.40517e+01
281.000      2.47605e+01
282.000      2.51169e+01
283.000      2.51360e+01
284.000      2.48408e+01
285.000      2.42594e+01
286.000      2.34260e+01
287.000      2.23813e+01
288.000      2.11723e+01
289.000      1.98500e+01
290.000      1.84659e+01
291.000      1.70674e+01
292.000      1.56949e+01
293.000      1.43802e+01
294.000      1.31460e+01
295.000      1.20070e+01
296.000      1.09709e+01
297.000      1.00393e+01
298.000      9.20871e+00
299.000      8.47125e+00
300.000      7.81585e+00
301.000      7.22937e+00
302.000      6.69781e+00
303.000      6.20762e+00
304.000      5.74682e+00
305.000      5.30631e+00
306.000      4.88089e+00
307.000      4.47009e+00
308.000      4.07828e+00
309.000      3.71404e+00
310.000      3.38885e+00
311.000      3.11542e+00
312.000      2.90607e+00
313.000      2.77144e+00
314.000      2.71961e+00
315.000      2.75537e+00
316.000      2.87943e+00
317.000      3.08733e+00
318.000      3.36830e+00
319.000      3.70465e+00
320.000      4.07222e+00
321.000      4.44271e+00
322.000      4.78774e+00
323.000      5.08396e+00
324.000      5.31785e+00
325.000      5.48872e+00
326.000      5.60882e+00
327.000      5.70054e+00
328.000      5.79135e+00
329.000      5.90837e+00
330.000      6.07397e+00
331.000      6.30350e+00
332.000      6.60527e+00
333.000      6.98202e+00
334.000      7.43291e+00
335.000      7.95504e+00
336.000      8.54438e+00
337.000      9.19604e+00
338.000      9.90437e+00
339.000      1.06628e+01
340.000      1.14628e+01
341.000      1.22927e+01
342.000      1.31347e+01
343.000      1.39627e+01
344.000      1.47410e+01
345.000      1.54251e+01
346.000      1.59657e+01
347.000      1.63145e+01
348.000      1.64305e+01
349.000      1.62865e+01
350.000      1.58744e+01
351.000      1.52086e+01
352.000      1.43268e+01
353.000      1.32873e+01
354.000      1.21621e+01
355.000      1.10272e+01
356.000      9.95146e+00
357.000      8.98666e+00
358.000      8.16297e+00
359.000      7.48915e+00
360.000      6.95787e+00
361.000      6.55307e+00
362.000      6.25650e+00
363.000      6.05077e+00
364.000      5.91866e+00
365.000      5.83993e+00
366.000      5.78835e+00
367.000      5.73171e+00
368.000      5.63596e+00
369.000      5.47278e+00
370.000      5.22783e+00
371.000      4.90655e+00
372.000      4.53500e+00
373.000      4.15506e+00
374.000      3.81526e+00
375.000      3.56002e+00
376.000      3.42041e+00
377.000      3.40866e+00
378.000      3.51724e+00
379.000      3.72215e+00
380.000      3.98833e+00
381.000      4.27566e+00
382.000      4.54412e+00
383.000      4.75801e+00
384.000      4.88939e+00
385.000      4.92128e+00
386.000      4.85008e+00
387.000      4.68619e+00
388.000      4.45168e+00
389.000      4.17500e+00
390.000      3.88377e+00
391.000      3.59815e+00
392.000      3.32734e+00
393.000      3.07040e+00
394.000      2.82094e+00
395.000      2.57334e+00
396.000      2.32769e+00
397.000      2.09115e+00
398.000      1.87542e+00
399.000      1.69149e+00
400.000      1.54448e+00
401.000      1.43060e+00
402.000      1.33792e+00
403.000      1.25023e+00
404.000      1.15243e+00
405.000      1.03527e+00
406.000      8.97616e-01
407.000      7.45916e-01
408.000      5.91279e-01
409.000      4.45717e-01
410.000      3.18890e-01
411.000      2.16275e-01
412.000      1.38939e-01
413.000      8.45062e-02
414.000      4.86492e-02
415.000      2.65037e-02
416.000      1.36626e-02
417.000      6.66387e-03
418.000      3.07516e-03
419.000      1.34259e-03
420.000      5.54562e-04
421.000      2.16711e-04
422.000      8.01188e-05
423.000      2.80226e-05
424.000      9.27258e-06
425.000      2.90277e-06
426.000      8.59690e-07
427.000      2.40874e-07
428.000      6.38492e-08
429.000      1.60118e-08
430.000      3.79875e-09
431.000      8.52627e-10
432.000      1.81049e-10
433.000      3.63706e-11
434.000      6.91229e-12
435.000      1.24283e-12
436.000      2.11406e-13
437.000      3.40207e-14
438.000      5.17946e-15
439.000      7.46010e-16
440.000      1.01653e-16
441.000      1.31044e-17
442.000      1.59819e-18
443.000      1.84400e-19
444.000      2.01283e-20
445.000      2.07861e-21
446.000      2.03075e-22
447.000      1.87697e-23
448.000      1.64125e-24
449.000      1.35772e-25
450.000      1.06259e-26
451.000      7.86747e-28
452.000      5.51091e-29
453.000      3.65199e-30
454.000      2.28957e-31
455.000      1.35799e-32
456.000      7.61998e-34
457.000      4.04511e-35
458.000      2.03154e-36
459.000      9.65243e-38
460.000      4.33876e-39
461.000      1.84507e-40
462.000      7.42297e-42
463.000      2.82527e-43
464.000      1.01732e-44
465.000      3.46559e-46
466.000      1.11689e-47
467.000      3.40537e-49
468.000      9.82279e-51
469.000      2.68054e-52
470.000      6.92035e-54
471.000      1.69025e-55
472.000      3.90563e-57
473.000      8.53788e-59
474.000      1.76574e-60
475.000      3.45477e-62
476.000      6.39485e-64
477.000      1.11985e-65
478.000      1.85526e-67
479.000      2.90783e-69
480.000      4.31172e-71
481.000      6.04852e-73
482.000      8.02723e-75
483.000      1.00786e-76
484.000      1.19716e-78
485.000      1.34531e-80
486.000      1.43024e-82
487.000      1.43851e-84
488.000      1.36878e-86
489.000      1.23218e-88
490.000      1.04938e-90
491.000      8.45488e-93
492.000      6.44466e-95
493.000      4.64740e-97
494.000      3.17057e-99
495.000     2.04637e-101
496.000     1.24953e-103
497.000     7.21817e-106
498.000     3.94480e-108
499.000     2.03958e-110
500.000     9.97641e-113
