# Gaussian folded, width=10 cm^-1
# [cm^-1] arbitrary
0.000      3.00000e+00
1.000      2.91796e+00
2.000      2.68508e+00
3.000      2.33749e+00
4.000      1.92514e+00
5.000      1.50000e+00
6.000      1.10570e+00
7.000      7.71085e-01
8.000      5.08727e-01
9.000      3.17529e-01
10.000      1.87500e-01
11.000      1.04746e-01
12.000      5.53590e-02
13.000      2.76796e-02
14.000      1.30935e-02
15.000      5.86049e-03
16.000      2.48462e-03
17.000      1.00673e-03
18.000      4.18125e-04
19.000      2.59979e-04
20.000      4.01506e-04
21.000      9.73830e-04
22.000      2.45491e-03
23.000      5.93382e-03
24.000      1.36115e-02
25.000      2.95964e-02
26.000      6.09964e-02
27.000      1.19159e-01
28.000      2.20669e-01
29.000      3.87419e-01
30.000      6.44884e-01
31.000      1.01784e+00
32.000      1.52341e+00
33.000      2.16234e+00
34.000      2.91099e+00
35.000      3.71710e+00
36.000      4.50246e+00
37.000      5.17384e+00
38.000      5.64062e+00
39.000      5.83475e+00
40.000      5.72701e+00
41.000      5.33421e+00
42.000      4.71490e+00
43.000      3.95506e+00
44.000      3.14872e+00
45.000      2.37929e+00
46.000      1.70677e+00
47.000      1.16311e+00
48.000      7.54928e-01
49.000      4.71151e-01
50.000      2.92332e-01
51.000      1.99079e-01
52.000      1.78168e-01
53.000      2.25904e-01
54.000      3.48742e-01
55.000      5.61304e-01
56.000      8.81828e-01
57.000      1.32532e+00
58.000      1.89530e+00
59.000      2.57592e+00
60.000      3.32703e+00
61.000      4.08475e+00
62.000      4.76882e+00
63.000      5.29609e+00
64.000      5.59710e+00
65.000      5.63106e+00
66.000      5.39490e+00
67.000      4.92351e+00
68.000      4.28140e+00
69.000      3.54852e+00
70.000      2.80458e+00
71.000      2.11624e+00
72.000      1.52978e+00
73.000      1.07024e+00
74.000      7.45638e-01
75.000      5.53961e-01
76.000      4.90381e-01
77.000      5.52352e-01
78.000      7.41275e-01
79.000      1.06032e+00
80.000      1.50912e+00
81.000      2.07701e+00
82.000      2.73708e+00
83.000      3.44359e+00
84.000      4.13430e+00
85.000      4.73832e+00
86.000      5.18805e+00
87.000      5.43242e+00
88.000      5.44836e+00
89.000      5.24742e+00
90.000      4.87634e+00
91.000      4.41152e+00
92.000      3.94891e+00
93.000      3.59139e+00
94.000      3.43575e+00
95.000      3.56059e+00
96.000      4.01654e+00
97.000      4.81923e+00
98.000      5.94606e+00
99.000      7.33736e+00
100.000      8.90238e+00
101.000      1.05297e+01
102.000      1.21008e+01
103.000      1.35039e+01
104.000      1.46466e+01
105.000      1.54634e+01
106.000      1.59192e+01
107.000      1.60080e+01
108.000      1.57476e+01
109.000      1.51741e+01
110.000      1.43359e+01
111.000      1.32891e+01
112.000      1.20952e+01
113.000      1.08187e+01
114.000      9.52555e+00
115.000      8.28030e+00
116.000      7.14195e+00
117.000      6.15920e+00
118.000      5.36615e+00
119.000      4.77997e+00
120.000      4.40189e+00
121.000      4.22154e+00
122.000      4.22380e+00
123.000      4.39630e+00
124.000      4.73499e+00
125.000      5.24573e+00
126.000      5.94075e+00
127.000      6.83040e+00
128.000      7.91276e+00
129.000      9.16449e+00
130.000      1.05366e+01
131.000      1.19570e+01
132.000      1.33405e+01
133.000      1.46016e+01
134.000      1.56691e+01
135.000      1.64950e+01
136.000      1.70586e+01
137.000      1.73641e+01
138.000      1.74342e+01
139.000      1.73028e+01
140.000      1.70080e+01
141.000      1.65873e+01
142.000      1.60742e+01
143.000      1.54957e+01
144.000      1.48710e+01
145.000      1.42113e+01
146.000      1.35216e+01
147.000      1.28045e+01
148.000      1.20653e+01
149.000      1.13163e+01
150.000      1.05786e+01
151.000      9.88010e+00
152.000      9.25028e+00
153.000      8.71337e+00
154.000      8.28285e+00
155.000      7.95914e+00
156.000      7.73133e+00
157.000      7.58188e+00
158.000      7.49221e+00
159.000      7.44707e+00
160.000      7.43655e+00
161.000      7.45590e+00
162.000      7.50443e+00
163.000      7.58447e+00
164.000      7.70078e+00
165.000      7.85990e+00
166.000      8.06875e+00
167.000      8.33214e+00
168.000      8.65005e+00
169.000      9.01569e+00
170.000      9.41563e+00
171.000      9.83192e+00
172.000      1.02456e+01
173.000      1.06401e+01
174.000      1.10029e+01
175.000      1.13257e+01
176.000      1.16030e+01
177.000      1.18301e+01
178.000      1.20021e+01
179.000      1.21133e+01
180.000      1.21582e+01
181.000      1.21338e+01
182.000      1.20425e+01
183.000      1.18944e+01
184.000      1.17096e+01
185.000      1.15172e+01
186.000      1.13519e+01
187.000      1.12475e+01
188.000      1.12289e+01
189.000      1.13050e+01
190.000      1.14651e+01
191.000      1.16800e+01
192.000      1.19082e+01
193.000      1.21055e+01
194.000      1.22338e+01
195.000      1.22688e+01
196.000      1.22026e+01
197.000      1.20425e+01
198.000      1.18083e+01
199.000      1.15264e+01
200.000      1.12266e+01
201.000      1.09364e+01
202.000      1.06774e+01
203.000      1.04609e+01
204.000      1.02852e+01
205.000      1.01359e+01
206.000      9.99065e+00
207.000      9.82631e+00
208.000      9.62825e+00
209.000      9.39638e+00
210.000      9.14636e+00
211.000      8.90487e+00
212.000      8.70077e+00
213.000      8.55578e+00
214.000      8.47795e+00
215.000      8.46038e+00
216.000      8.48483e+00
217.000      8.52844e+00
218.000      8.57063e+00
219.000      8.59767e+00
220.000      8.60387e+00
221.000      8.58970e+00
222.000      8.55881e+00
223.000      8.51585e+00
224.000      8.46636e+00
225.000      8.41862e+00
226.000      8.38577e+00
227.000      8.38621e+00
228.000      8.44062e+00
229.000      8.56591e+00
230.000      8.76800e+00
231.000      9.03634e+00
232.000      9.34307e+00
233.000      9.64787e+00
234.000      9.90748e+00
235.000      1.00868e+01
236.000      1.01678e+01
237.000      1.01530e+01
238.000      1.00631e+01
239.000      9.92969e+00
240.000      9.78658e+00
241.000      9.66262e+00
242.000      9.57823e+00
243.000      9.54515e+00
244.000      9.56791e+00
245.000      9.64496e+00
246.000      9.76859e+00
247.000      9.92396e+00
248.000      1.00889e+01
249.000      1.02356e+01
250.000      1.03358e+01
251.000      1.03668e+01
252.000      1.03186e+01
253.000      1.01974e+01
254.000      1.00266e+01
255.000      9.84230e+00
256.000      9.68605e+00
257.000      9.59574e+00
258.000      9.59701e+00
259.000      9.69729e+00
260.000      9.88397e+00
261.000      1.01270e+01
262.000      1.03856e+01
263.000      1.06164e+01
264.000      1.07822e+01
265.000      1.08568e+01
266.000      1.08270e+01
267.000      1.06903e+01
268.000      1.04516e+01
269.000      1.01196e+01
270.000      9.70636e+00
271.000      9.22859e+00
272.000      8.71120e+00
273.000      8.18971e+00
274.000      7.70979e+00
275.000      7.32265e+00
276.000      7.07691e+00
277.000      7.00896e+00
278.000      7.13508e+00
279.000      7.44790e+00
280.000      7.91858e+00
281.000      8.50376e+00
282.000      9.15469e+00
283.000      9.82526e+00
284.000      1.04762e+01
285.000      1.10750e+01
286.000      1.15926e+01
287.000      1.20005e+01
288.000      1.22705e+01
289.000      1.23783e+01
290.000      1.23105e+01
291.000      1.20724e+01
292.000      1.16918e+01
293.000      1.12181e+01
294.000      1.07145e+01
295.000      1.02453e+01
296.000      9.86198e+00
297.000      9.59087e+00
298.000      9.42789e+00
299.000      9.34055e+00
300.000      9.27795e+00
301.000      9.18549e+00
302.000      9.01994e+00
303.000      8.75997e+00
304.000      8.40909e+00
305.000      7.99054e+00
306.000      7.53666e+00
307.000      7.07743e+00
308.000      6.63252e+00
309.000      6.20989e+00
310.000      5.81052e+00
311.000      5.43661e+00
312.000      5.09902e+00
313.000      4.82017e+00
314.000      4.63096e+00
315.000      4.56253e+00
316.000      4.63626e+00
317.000      4.85587e+00
318.000      5.20471e+00
319.000      5.64954e+00
320.000      6.14924e+00
321.000      6.66544e+00
322.000      7.17139e+00
323.000      7.65602e+00
324.000      8.12222e+00
325.000      8.58033e+00
326.000      9.03948e+00
327.000      9.49993e+00
328.000      9.94946e+00
329.000      1.03650e+01
330.000      1.07196e+01
331.000      1.09922e+01
332.000      1.11778e+01
333.000      1.12936e+01
334.000      1.13797e+01
335.000      1.14928e+01
336.000      1.16949e+01
337.000      1.20395e+01
338.000      1.25591e+01
339.000      1.32581e+01
340.000      1.41112e+01
341.000      1.50693e+01
342.000      1.60698e+01
343.000      1.70510e+01
344.000      1.79652e+01
345.000      1.87879e+01
346.000      1.95212e+01
347.000      2.01885e+01
348.000      2.08233e+01
349.000      2.14540e+01
350.000      2.20893e+01
351.000      2.27095e+01
352.000      2.32649e+01
353.000      2.36826e+01
354.000      2.38799e+01
355.000      2.37813e+01
356.000      2.33347e+01
357.000      2.25227e+01
358.000      2.13688e+01
359.000      1.99337e+01
360.000      1.83070e+01
361.000      1.65916e+01
362.000      1.48887e+01
363.000      1.32828e+01
364.000      1.18334e+01
365.000      1.05714e+01
366.000      9.50233e+00
367.000      8.61385e+00
368.000      7.88462e+00
369.000      7.29264e+00
370.000      6.82093e+00
371.000      6.45989e+00
372.000      6.20673e+00
373.000      6.06308e+00
374.000      6.03209e+00
375.000      6.11624e+00
376.000      6.31629e+00
377.000      6.63114e+00
378.000      7.05780e+00
379.000      7.59053e+00
380.000      8.21848e+00
381.000      8.92188e+00
382.000      9.66774e+00
383.000      1.04070e+01
384.000      1.10754e+01
385.000      1.15991e+01
386.000      1.19060e+01
387.000      1.19397e+01
388.000      1.16737e+01
389.000      1.11191e+01
390.000      1.03253e+01
391.000      9.37064e+00
392.000      8.34678e+00
393.000      7.34101e+00
394.000      6.42145e+00
395.000      5.62917e+00
396.000      4.97805e+00
397.000      4.46070e+00
398.000      4.05703e+00
399.000      3.74229e+00
400.000      3.49238e+00
401.000      3.28624e+00
402.000      3.10627e+00
403.000      2.93824e+00
404.000      2.77154e+00
405.000      2.60008e+00
406.000      2.42302e+00
407.000      2.24459e+00
408.000      2.07239e+00
409.000      1.91456e+00
410.000      1.77666e+00
411.000      1.65983e+00
412.000      1.56083e+00
413.000      1.47428e+00
414.000      1.39577e+00
415.000      1.32431e+00
416.000      1.26282e+00
417.000      1.21611e+00
418.000      1.18745e+00
419.000      1.17524e+00
420.000      1.17152e+00
421.000      1.16334e+00
422.000      1.13638e+00
423.000      1.07946e+00
424.000      9.88156e-01
425.000      8.66084e-01
426.000      7.23616e-01
427.000      5.74690e-01
428.000      4.33065e-01
429.000      3.09297e-01
430.000      2.09218e-01
431.000      1.33979e-01
432.000      8.12032e-02
433.000      4.65734e-02
434.000      2.52748e-02
435.000      1.29777e-02
436.000      6.30447e-03
437.000      2.89757e-03
438.000      1.25993e-03
439.000      5.18299e-04
440.000      2.01714e-04
441.000      7.42700e-05
442.000      2.58707e-05
443.000      8.52554e-06
444.000      2.65799e-06
445.000      7.83977e-07
446.000      2.18761e-07
447.000      5.77505e-08
448.000      1.44231e-08
449.000      3.40784e-09
450.000      7.61758e-10
451.000      1.61091e-10
452.000      3.22289e-11
453.000      6.10010e-12
454.000      1.09231e-12
455.000      1.85042e-13
456.000      2.96562e-14
457.000      4.49652e-15
458.000      6.44993e-16
459.000      8.75289e-17
460.000      1.12374e-17
461.000      1.36489e-18
462.000      1.56836e-19
463.000      1.70496e-20
464.000      1.75347e-21
465.000      1.70608e-22
466.000      1.57043e-23
467.000      1.36759e-24
468.000      1.12671e-25
469.000      8.78181e-27
470.000      6.47551e-28
471.000      4.51733e-29
472.000      2.98131e-30
473.000      1.86144e-31
474.000      1.09954e-32
475.000      6.14453e-34
476.000      3.24851e-35
477.000      1.62479e-36
478.000      7.68826e-38
479.000      3.44173e-39
480.000      1.45761e-40
481.000      5.84018e-42
482.000      2.21375e-43
483.000      7.93865e-45
484.000      2.69329e-46
485.000      8.64444e-48
486.000      2.62488e-49
487.000      7.54046e-51
488.000      2.04930e-52
489.000      5.26901e-54
490.000      1.28166e-55
491.000      2.94938e-57
492.000      6.42108e-59
493.000      1.32252e-60
494.000      2.57701e-62
495.000      4.75057e-64
496.000      8.28502e-66
497.000      1.36697e-67
498.000      2.13374e-69
499.000      3.15095e-71
500.000      4.40210e-73
