# Gaussian folded, width=10 cm^-1
# [cm^-1] arbitrary
0.000      3.00000e+00
1.000      2.91796e+00
2.000      2.68508e+00
3.000      2.33749e+00
4.000      1.92514e+00
5.000      1.50000e+00
6.000      1.10570e+00
7.000      7.71085e-01
8.000      5.08727e-01
9.000      3.17529e-01
10.000      1.87500e-01
11.000      1.04746e-01
12.000      5.53590e-02
13.000      2.76796e-02
14.000      1.30935e-02
15.000      5.86034e-03
16.000      2.48413e-03
17.000      1.00523e-03
18.000      4.13780e-04
19.000      2.48126e-04
20.000      3.71067e-04
21.000      9.00303e-04
22.000      2.28801e-03
23.000      5.57818e-03
24.000      1.29012e-02
25.000      2.82695e-02
26.000      5.86834e-02
27.000      1.15410e-01
28.000      2.15050e-01
29.000      3.79689e-01
30.000      6.35251e-01
31.000      1.00722e+00
32.000      1.51358e+00
33.000      2.15583e+00
34.000      2.91065e+00
35.000      3.72533e+00
36.000      4.52037e+00
37.000      5.20053e+00
38.000      5.67304e+00
39.000      5.86825e+00
40.000      5.75639e+00
41.000      5.35507e+00
42.000      4.72470e+00
43.000      3.95362e+00
44.000      3.13795e+00
45.000      2.36242e+00
46.000      1.68739e+00
47.000      1.14423e+00
48.000      7.38531e-01
49.000      4.58026e-01
50.000      2.82219e-01
51.000      1.90904e-01
52.000      1.70267e-01
53.000      2.16190e-01
54.000      3.34914e-01
55.000      5.41230e-01
56.000      8.54213e-01
57.000      1.29064e+00
58.000      1.85675e+00
59.000      2.53988e+00
60.000      3.30262e+00
61.000      4.08195e+00
62.000      4.79564e+00
63.000      5.35544e+00
64.000      5.68467e+00
65.000      5.73531e+00
66.000      5.49949e+00
67.000      5.01148e+00
68.000      4.33966e+00
69.000      3.57094e+00
70.000      2.79281e+00
71.000      2.07798e+00
72.000      1.47574e+00
73.000      1.01073e+00
74.000      6.88158e-01
75.000      5.02215e-01
76.000      4.44763e-01
77.000      5.11509e-01
78.000      7.04241e-01
79.000      1.02868e+00
80.000      1.48864e+00
81.000      2.07799e+00
82.000      2.77301e+00
83.000      3.52764e+00
84.000      4.27445e+00
85.000      4.93228e+00
86.000      5.42012e+00
87.000      5.67401e+00
88.000      5.66268e+00
89.000      5.39747e+00
90.000      4.93354e+00
91.000      4.36225e+00
92.000      3.79694e+00
93.000      3.35592e+00
94.000      3.14627e+00
95.000      3.25093e+00
96.000      3.71953e+00
97.000      4.56314e+00
98.000      5.75232e+00
99.000      7.21907e+00
100.000      8.86305e+00
101.000      1.05624e+01
102.000      1.21882e+01
103.000      1.36197e+01
104.000      1.47584e+01
105.000      1.55376e+01
106.000      1.59262e+01
107.000      1.59274e+01
108.000      1.55727e+01
109.000      1.49142e+01
110.000      1.40163e+01
111.000      1.29489e+01
112.000      1.17823e+01
113.000      1.05833e+01
114.000      9.41310e+00
115.000      8.32482e+00
116.000      7.36018e+00
117.000      6.54674e+00
118.000      5.89637e+00
119.000      5.40670e+00
120.000      5.06604e+00
121.000      4.86108e+00
122.000      4.78499e+00
123.000      4.84313e+00
124.000      5.05391e+00
125.000      5.44382e+00
126.000      6.03750e+00
127.000      6.84571e+00
128.000      7.85504e+00
129.000      9.02302e+00
130.000      1.02809e+01
131.000      1.15440e+01
132.000      1.27267e+01
133.000      1.37586e+01
134.000      1.45957e+01
135.000      1.52255e+01
136.000      1.56630e+01
137.000      1.59410e+01
138.000      1.60965e+01
139.000      1.61592e+01
140.000      1.61430e+01
141.000      1.60460e+01
142.000      1.58549e+01
143.000      1.55541e+01
144.000      1.51363e+01
145.000      1.46083e+01
146.000      1.39936e+01
147.000      1.33277e+01
148.000      1.26505e+01
149.000      1.19968e+01
150.000      1.13886e+01
151.000      1.08325e+01
152.000      1.03216e+01
153.000      9.84175e+00
154.000      9.37973e+00
155.000      8.93012e+00
156.000      8.49866e+00
157.000      8.10112e+00
158.000      7.75850e+00
159.000      7.49075e+00
160.000      7.31146e+00
161.000      7.22560e+00
162.000      7.23071e+00
163.000      7.32080e+00
164.000      7.49114e+00
165.000      7.74174e+00
166.000      8.07785e+00
167.000      8.50688e+00
168.000      9.03214e+00
169.000      9.64556e+00
170.000      1.03217e+01
171.000      1.10160e+01
172.000      1.16690e+01
173.000      1.22165e+01
174.000      1.26025e+01
175.000      1.27934e+01
176.000      1.27858e+01
177.000      1.26085e+01
178.000      1.23156e+01
179.000      1.19741e+01
180.000      1.16494e+01
181.000      1.13920e+01
182.000      1.12305e+01
183.000      1.11691e+01
184.000      1.11917e+01
185.000      1.12691e+01
186.000      1.13677e+01
187.000      1.14581e+01
188.000      1.15207e+01
189.000      1.15494e+01
190.000      1.15504e+01
191.000      1.15382e+01
192.000      1.15290e+01
193.000      1.15326e+01
194.000      1.15469e+01
195.000      1.15561e+01
196.000      1.15335e+01
197.000      1.14509e+01
198.000      1.12886e+01
199.000      1.10461e+01
200.000      1.07465e+01
201.000      1.04333e+01
202.000      1.01604e+01
203.000      9.97597e+00
204.000      9.90733e+00
205.000      9.95017e+00
206.000      1.00671e+01
207.000      1.01956e+01
208.000      1.02634e+01
209.000      1.02071e+01
210.000      9.98716e+00
211.000      9.59731e+00
212.000      9.06504e+00
213.000      8.44424e+00
214.000      7.80296e+00
215.000      7.20958e+00
216.000      6.72060e+00
217.000      6.37222e+00
218.000      6.17671e+00
219.000      6.12374e+00
220.000      6.18577e+00
221.000      6.32639e+00
222.000      6.50980e+00
223.000      6.70934e+00
224.000      6.91317e+00
225.000      7.12568e+00
226.000      7.36427e+00
227.000      7.65242e+00
228.000      8.01090e+00
229.000      8.44978e+00
230.000      8.96340e+00
231.000      9.52962e+00
232.000      1.01133e+01
233.000      1.06731e+01
234.000      1.11685e+01
235.000      1.15673e+01
236.000      1.18496e+01
237.000      1.20100e+01
238.000      1.20564e+01
239.000      1.20079e+01
240.000      1.18903e+01
241.000      1.17323e+01
242.000      1.15612e+01
243.000      1.14000e+01
244.000      1.12645e+01
245.000      1.11628e+01
246.000      1.10951e+01
247.000      1.10550e+01
248.000      1.10314e+01
249.000      1.10101e+01
250.000      1.09762e+01
251.000      1.09165e+01
252.000      1.08217e+01
253.000      1.06893e+01
254.000      1.05254e+01
255.000      1.03455e+01
256.000      1.01733e+01
257.000      1.00372e+01
258.000      9.96495e+00
259.000      9.97818e+00
260.000      1.00868e+01
261.000      1.02857e+01
262.000      1.05532e+01
263.000      1.08533e+01
264.000      1.11401e+01
265.000      1.13653e+01
266.000      1.14854e+01
267.000      1.14695e+01
268.000      1.13034e+01
269.000      1.09913e+01
270.000      1.05540e+01
271.000      1.00250e+01
272.000      9.44550e+00
273.000      8.85887e+00
274.000      8.30668e+00
275.000      7.82528e+00
276.000      7.44401e+00
277.000      7.18451e+00
278.000      7.06083e+00
279.000      7.07942e+00
280.000      7.23835e+00
281.000      7.52539e+00
282.000      7.91593e+00
283.000      8.37227e+00
284.000      8.84611e+00
285.000      9.28470e+00
286.000      9.63969e+00
287.000      9.87587e+00
288.000      9.97700e+00
289.000      9.94667e+00
290.000      9.80459e+00
291.000      9.57990e+00
292.000      9.30410e+00
293.000      9.00554e+00
294.000      8.70600e+00
295.000      8.41911e+00
296.000      8.14979e+00
297.000      7.89460e+00
298.000      7.64322e+00
299.000      7.38144e+00
300.000      7.09564e+00
301.000      6.77764e+00
302.000      6.42858e+00
303.000      6.06003e+00
304.000      5.69194e+00
305.000      5.34770e+00
306.000      5.04815e+00
307.000      4.80657e+00
308.000      4.62659e+00
309.000      4.50380e+00
310.000      4.43065e+00
311.000      4.40258e+00
312.000      4.42340e+00
313.000      4.50754e+00
314.000      4.67850e+00
315.000      4.96377e+00
316.000      5.38785e+00
317.000      5.96539e+00
318.000      6.69607e+00
319.000      7.56225e+00
320.000      8.52926e+00
321.000      9.54827e+00
322.000      1.05611e+01
323.000      1.15068e+01
324.000      1.23295e+01
325.000      1.29859e+01
326.000      1.34524e+01
327.000      1.37279e+01
328.000      1.38336e+01
329.000      1.38073e+01
330.000      1.36957e+01
331.000      1.35446e+01
332.000      1.33918e+01
333.000      1.32628e+01
334.000      1.31711e+01
335.000      1.31222e+01
336.000      1.31190e+01
337.000      1.31676e+01
338.000      1.32803e+01
339.000      1.34759e+01
340.000      1.37778e+01
341.000      1.42092e+01
342.000      1.47880e+01
343.000      1.55213e+01
344.000      1.64016e+01
345.000      1.74043e+01
346.000      1.84885e+01
347.000      1.96002e+01
348.000      2.06772e+01
349.000      2.16552e+01
350.000      2.24729e+01
351.000      2.30756e+01
352.000      2.34178e+01
353.000      2.34660e+01
354.000      2.32018e+01
355.000      2.26255e+01
356.000      2.17606e+01
357.000      2.06540e+01
358.000      1.93732e+01
359.000      1.79971e+01
360.000      1.66052e+01
361.000      1.52650e+01
362.000      1.40236e+01
363.000      1.29042e+01
364.000      1.19088e+01
365.000      1.10245e+01
366.000      1.02321e+01
367.000      9.51314e+00
368.000      8.85463e+00
369.000      8.25156e+00
370.000      7.70689e+00
371.000      7.23069e+00
372.000      6.83862e+00
373.000      6.55008e+00
374.000      6.38563e+00
375.000      6.36390e+00
376.000      6.49816e+00
377.000      6.79330e+00
378.000      7.24376e+00
379.000      7.83249e+00
380.000      8.53042e+00
381.000      9.29614e+00
382.000      1.00758e+01
383.000      1.08040e+01
384.000      1.14076e+01
385.000      1.18130e+01
386.000      1.19568e+01
387.000      1.17984e+01
388.000      1.13304e+01
389.000      1.05838e+01
390.000      9.62439e+00
391.000      8.54266e+00
392.000      7.43718e+00
393.000      6.39777e+00
394.000      5.49176e+00
395.000      4.75658e+00
396.000      4.19941e+00
397.000      3.80284e+00
398.000      3.53391e+00
399.000      3.35383e+00
400.000      3.22630e+00
401.000      3.12291e+00
402.000      3.02540e+00
403.000      2.92508e+00
404.000      2.82037e+00
405.000      2.71329e+00
406.000      2.60620e+00
407.000      2.49930e+00
408.000      2.38967e+00
409.000      2.27173e+00
410.000      2.13907e+00
411.000      1.98702e+00
412.000      1.81512e+00
413.000      1.62887e+00
414.000      1.43986e+00
415.000      1.26400e+00
416.000      1.11818e+00
417.000      1.01585e+00
418.000      9.63093e-01
419.000      9.56194e-01
420.000      9.81753e-01
421.000      1.01948e+00
422.000      1.04700e+00
423.000      1.04526e+00
424.000      1.00295e+00
425.000      9.18606e-01
426.000      7.99938e-01
427.000      6.60836e-01
428.000      5.17256e-01
429.000      3.83349e-01
430.000      2.68906e-01
431.000      1.78498e-01
432.000      1.12109e-01
433.000      6.66197e-02
434.000      3.74540e-02
435.000      1.99215e-02
436.000      1.00246e-02
437.000      4.77239e-03
438.000      2.14943e-03
439.000      9.15857e-04
440.000      3.69191e-04
441.000      1.40796e-04
442.000      5.07985e-05
443.000      1.73391e-05
444.000      5.59914e-06
445.000      1.71054e-06
446.000      4.94382e-07
447.000      1.35179e-07
448.000      3.49683e-08
449.000      8.55768e-09
450.000      1.98133e-09
451.000      4.33984e-10
452.000      8.99308e-11
453.000      1.76304e-11
454.000      3.26987e-12
455.000      5.73745e-13
456.000      9.52411e-14
457.000      1.49571e-14
458.000      2.22222e-15
459.000      3.12353e-16
460.000      4.15357e-17
461.000      5.22535e-18
462.000      6.21908e-19
463.000      7.00253e-20
464.000      7.45935e-21
465.000      7.51735e-22
466.000      7.16715e-23
467.000      6.46465e-24
468.000      5.51648e-25
469.000      4.45345e-26
470.000      3.40132e-27
471.000      2.45763e-28
472.000      1.67998e-29
473.000      1.08645e-30
474.000      6.64708e-32
475.000      3.84743e-33
476.000      2.10682e-34
477.000      1.09145e-35
478.000      5.34929e-37
479.000      2.48031e-38
480.000      1.08801e-39
481.000      4.51523e-41
482.000      1.77273e-42
483.000      6.58450e-44
484.000      2.31378e-45
485.000      7.69196e-47
486.000      2.41919e-48
487.000      7.19816e-50
488.000      2.02624e-51
489.000      5.39605e-53
490.000      1.35950e-54
491.000      3.24042e-56
492.000      7.30702e-58
493.000      1.55882e-59
494.000      3.14609e-61
495.000      6.00708e-63
496.000      1.08511e-64
497.000      1.85438e-66
498.000      2.99809e-68
499.000      4.58571e-70
500.000      6.63569e-72
