# Gaussian folded, width=10 cm^-1
# [cm^-1] arbitrary
0.000      3.00000e+00
1.000      2.91796e+00
2.000      2.68508e+00
3.000      2.33749e+00
4.000      1.92514e+00
5.000      1.50000e+00
6.000      1.10570e+00
7.000      7.71085e-01
8.000      5.08727e-01
9.000      3.17529e-01
10.000      1.87500e-01
11.000      1.04746e-01
12.000      5.53594e-02
13.000      2.76808e-02
14.000      1.30979e-02
15.000      5.87496e-03
16.000      2.53004e-03
17.000      1.14151e-03
18.000      7.96375e-04
19.000      1.26378e-03
20.000      2.92007e-03
21.000      6.94687e-03
22.000      1.58409e-02
23.000      3.42715e-02
24.000      7.02542e-02
25.000      1.36440e-01
26.000      2.51044e-01
27.000      4.37644e-01
28.000      7.22898e-01
29.000      1.13146e+00
30.000      1.67814e+00
31.000      2.35867e+00
32.000      3.14176e+00
33.000      3.96611e+00
34.000      4.74525e+00
35.000      5.38112e+00
36.000      5.78386e+00
37.000      5.89261e+00
38.000      5.69052e+00
39.000      5.20907e+00
40.000      4.52007e+00
41.000      3.71817e+00
42.000      2.89989e+00
43.000      2.14553e+00
44.000      1.50855e+00
45.000      1.01402e+00
46.000      6.64308e-01
47.000      4.48794e-01
48.000      3.54013e-01
49.000      3.71375e-01
50.000      5.00931e-01
51.000      7.50610e-01
52.000      1.13125e+00
53.000      1.64847e+00
54.000      2.29339e+00
55.000      3.03492e+00
56.000      3.81663e+00
57.000      4.56059e+00
58.000      5.17867e+00
59.000      5.58910e+00
60.000      5.73409e+00
61.000      5.59306e+00
62.000      5.18744e+00
63.000      4.57534e+00
64.000      3.83814e+00
65.000      3.06319e+00
66.000      2.32783e+00
67.000      1.68895e+00
68.000      1.17972e+00
69.000      8.12994e-01
70.000      5.88867e-01
71.000      5.03252e-01
72.000      5.54596e-01
73.000      7.46654e-01
74.000      1.08642e+00
75.000      1.57760e+00
76.000      2.21147e+00
77.000      2.95801e+00
78.000      3.76116e+00
79.000      4.54126e+00
80.000      5.20612e+00
81.000      5.66908e+00
82.000      5.86975e+00
83.000      5.79149e+00
84.000      5.47021e+00
85.000      4.99199e+00
86.000      4.48001e+00
87.000      4.07469e+00
88.000      3.91132e+00
89.000      4.09963e+00
90.000      4.70741e+00
91.000      5.75007e+00
92.000      7.18662e+00
93.000      8.92325e+00
94.000      1.08248e+01
95.000      1.27328e+01
96.000      1.44877e+01
97.000      1.59496e+01
98.000      1.70143e+01
99.000      1.76208e+01
100.000      1.77513e+01
101.000      1.74255e+01
102.000      1.66932e+01
103.000      1.56271e+01
104.000      1.43168e+01
105.000      1.28622e+01
106.000      1.13652e+01
107.000      9.91962e+00
108.000      8.59956e+00
109.000      7.45086e+00
110.000      6.48821e+00
111.000      5.70033e+00
112.000      5.06272e+00
113.000      4.55450e+00
114.000      4.17416e+00
115.000      3.94906e+00
116.000      3.93530e+00
117.000      4.20753e+00
118.000      4.84074e+00
119.000      5.88852e+00
120.000      7.36272e+00
121.000      9.21968e+00
122.000      1.13568e+01
123.000      1.36211e+01
124.000      1.58296e+01
125.000      1.77963e+01
126.000      1.93614e+01
127.000      2.04155e+01
128.000      2.09143e+01
129.000      2.08804e+01
130.000      2.03943e+01
131.000      1.95759e+01
132.000      1.85617e+01
133.000      1.74806e+01
134.000      1.64340e+01
135.000      1.54819e+01
136.000      1.46396e+01
137.000      1.38841e+01
138.000      1.31704e+01
139.000      1.24524e+01
140.000      1.17022e+01
141.000      1.09226e+01
142.000      1.01500e+01
143.000      9.44520e+00
144.000      8.87788e+00
145.000      8.50761e+00
146.000      8.36817e+00
147.000      8.45824e+00
148.000      8.74081e+00
149.000      9.15055e+00
150.000      9.60700e+00
151.000      1.00302e+01
152.000      1.03552e+01
153.000      1.05419e+01
154.000      1.05799e+01
155.000      1.04860e+01
156.000      1.02976e+01
157.000      1.00627e+01
158.000      9.83054e+00
159.000      9.64317e+00
160.000      9.53076e+00
161.000      9.51014e+00
162.000      9.58585e+00
163.000      9.75257e+00
164.000      9.99777e+00
165.000      1.03044e+01
166.000      1.06530e+01
167.000      1.10247e+01
168.000      1.14029e+01
169.000      1.17753e+01
170.000      1.21340e+01
171.000      1.24750e+01
172.000      1.27967e+01
173.000      1.30985e+01
174.000      1.33799e+01
175.000      1.36406e+01
176.000      1.38800e+01
177.000      1.40966e+01
178.000      1.42871e+01
179.000      1.44464e+01
180.000      1.45680e+01
181.000      1.46457e+01
182.000      1.46767e+01
183.000      1.46635e+01
184.000      1.46144e+01
185.000      1.45433e+01
186.000      1.44674e+01
187.000      1.44055e+01
188.000      1.43767e+01
189.000      1.43992e+01
190.000      1.44900e+01
191.000      1.46632e+01
192.000      1.49274e+01
193.000      1.52833e+01
194.000      1.57199e+01
195.000      1.62133e+01
196.000      1.67265e+01
197.000      1.72123e+01
198.000      1.76187e+01
199.000      1.78954e+01
200.000      1.80018e+01
201.000      1.79136e+01
202.000      1.76274e+01
203.000      1.71612e+01
204.000      1.65515e+01
205.000      1.58454e+01
206.000      1.50916e+01
207.000      1.43302e+01
208.000      1.35867e+01
209.000      1.28699e+01
210.000      1.21751e+01
211.000      1.14909e+01
212.000      1.08072e+01
213.000      1.01200e+01
214.000      9.43334e+00
215.000      8.75719e+00
216.000      8.10373e+00
217.000      7.48490e+00
218.000      6.91265e+00
219.000      6.40138e+00
220.000      5.97061e+00
221.000      5.64509e+00
222.000      5.45085e+00
223.000      5.40806e+00
224.000      5.52385e+00
225.000      5.78837e+00
226.000      6.17674e+00
227.000      6.65622e+00
228.000      7.19591e+00
229.000      7.77484e+00
230.000      8.38516e+00
231.000      9.02906e+00
232.000      9.71108e+00
233.000      1.04287e+01
234.000      1.11651e+01
235.000      1.18869e+01
236.000      1.25478e+01
237.000      1.30965e+01
238.000      1.34868e+01
239.000      1.36870e+01
240.000      1.36848e+01
241.000      1.34890e+01
242.000      1.31254e+01
243.000      1.26309e+01
244.000      1.20468e+01
245.000      1.14121e+01
246.000      1.07597e+01
247.000      1.01144e+01
248.000      9.49361e+00
249.000      8.90950e+00
250.000      8.37123e+00
251.000      7.88695e+00
252.000      7.46425e+00
253.000      7.10919e+00
254.000      6.82432e+00
255.000      6.60667e+00
256.000      6.44682e+00
257.000      6.32956e+00
258.000      6.23671e+00
259.000      6.15139e+00
260.000      6.06278e+00
261.000      5.96990e+00
262.000      5.88343e+00
263.000      5.82489e+00
264.000      5.82397e+00
265.000      5.91496e+00
266.000      6.13365e+00
267.000      6.51520e+00
268.000      7.09265e+00
269.000      7.89471e+00
270.000      8.94186e+00
271.000      1.02405e+01
272.000      1.17764e+01
273.000      1.35103e+01
274.000      1.53774e+01
275.000      1.72936e+01
276.000      1.91655e+01
277.000      2.09040e+01
278.000      2.24353e+01
279.000      2.37079e+01
280.000      2.46929e+01
281.000      2.53796e+01
282.000      2.57684e+01
283.000      2.58626e+01
284.000      2.56646e+01
285.000      2.51754e+01
286.000      2.43985e+01
287.000      2.33469e+01
288.000      2.20498e+01
289.000      2.05568e+01
290.000      1.89370e+01
291.000      1.72722e+01
292.000      1.56448e+01
293.000      1.41248e+01
294.000      1.27587e+01
295.000      1.15633e+01
296.000      1.05277e+01
297.000      9.62142e+00
298.000      8.80670e+00
299.000      8.05058e+00
300.000      7.33323e+00
301.000      6.65035e+00
302.000      6.01033e+00
303.000      5.42809e+00
304.000      4.91892e+00
305.000      4.49433e+00
306.000      4.16076e+00
307.000      3.92020e+00
308.000      3.77110e+00
309.000      3.70852e+00
310.000      3.72333e+00
311.000      3.80162e+00
312.000      3.92567e+00
313.000      4.07713e+00
314.000      4.24167e+00
315.000      4.41301e+00
316.000      4.59401e+00
317.000      4.79359e+00
318.000      5.01998e+00
319.000      5.27301e+00
320.000      5.53858e+00
321.000      5.78833e+00
322.000      5.98511e+00
323.000      6.09294e+00
324.000      6.08809e+00
325.000      5.96768e+00
326.000      5.75292e+00
327.000      5.48640e+00
328.000      5.22452e+00
329.000      5.02779e+00
330.000      4.95143e+00
331.000      5.03820e+00
332.000      5.31384e+00
333.000      5.78512e+00
334.000      6.44009e+00
335.000      7.25084e+00
336.000      8.17885e+00
337.000      9.18226e+00
338.000      1.02234e+01
339.000      1.12733e+01
340.000      1.23123e+01
341.000      1.33238e+01
342.000      1.42865e+01
343.000      1.51666e+01
344.000      1.59159e+01
345.000      1.64759e+01
346.000      1.67898e+01
347.000      1.68147e+01
348.000      1.65331e+01
349.000      1.59569e+01
350.000      1.51262e+01
351.000      1.41014e+01
352.000      1.29535e+01
353.000      1.17541e+01
354.000      1.05675e+01
355.000      9.44506e+00
356.000      8.42190e+00
357.000      7.51730e+00
358.000      6.73727e+00
359.000      6.07953e+00
360.000      5.53903e+00
361.000      5.11184e+00
362.000      4.79597e+00
363.000      4.58886e+00
364.000      4.48301e+00
365.000      4.46242e+00
366.000      4.50211e+00
367.000      4.57159e+00
368.000      4.64131e+00
369.000      4.68952e+00
370.000      4.70657e+00
371.000      4.69511e+00
372.000      4.66621e+00
373.000      4.63338e+00
374.000      4.60730e+00
375.000      4.59332e+00
376.000      4.59213e+00
377.000      4.60272e+00
378.000      4.62532e+00
379.000      4.66249e+00
380.000      4.71761e+00
381.000      4.79137e+00
382.000      4.87789e+00
383.000      4.96254e+00
384.000      5.02259e+00
385.000      5.03099e+00
386.000      4.96220e+00
387.000      4.79848e+00
388.000      4.53479e+00
389.000      4.18105e+00
390.000      3.76115e+00
391.000      3.30890e+00
392.000      2.86180e+00
393.000      2.45397e+00
394.000      2.10986e+00
395.000      1.84051e+00
396.000      1.64314e+00
397.000      1.50451e+00
398.000      1.40660e+00
399.000      1.33291e+00
400.000      1.27291e+00
401.000      1.22339e+00
402.000      1.18634e+00
403.000      1.16462e+00
404.000      1.15763e+00
405.000      1.15884e+00
406.000      1.15631e+00
407.000      1.13596e+00
408.000      1.08614e+00
409.000      1.00143e+00
410.000      8.84424e-01
411.000      7.44789e-01
412.000      5.96286e-01
413.000      4.53014e-01
414.000      3.26208e-01
415.000      2.22480e-01
416.000      1.43651e-01
417.000      8.77863e-02
418.000      5.07663e-02
419.000      2.77786e-02
420.000      1.43815e-02
421.000      7.04436e-03
422.000      3.26446e-03
423.000      1.43123e-03
424.000      5.93648e-04
425.000      2.32954e-04
426.000      8.64833e-05
427.000      3.03747e-05
428.000      1.00928e-05
429.000      3.17269e-06
430.000      9.43544e-07
431.000      2.65469e-07
432.000      7.06617e-08
433.000      1.77939e-08
434.000      4.23913e-09
435.000      9.55433e-10
436.000      2.03723e-10
437.000      4.10959e-11
438.000      7.84286e-12
439.000      1.41602e-12
440.000      2.41868e-13
441.000      3.90848e-14
442.000      5.97522e-15
443.000      8.64206e-16
444.000      1.18249e-16
445.000      1.53073e-17
446.000      1.87462e-18
447.000      2.17194e-19
448.000      2.38068e-20
449.000      2.46871e-21
450.000      2.42190e-22
451.000      2.24782e-23
452.000      1.97371e-24
453.000      1.63954e-25
454.000      1.28849e-26
455.000      9.57977e-28
456.000      6.73826e-29
457.000      4.48392e-30
458.000      2.82284e-31
459.000      1.68125e-32
460.000      9.47314e-34
461.000      5.04981e-35
462.000      2.54667e-36
463.000      1.21503e-37
464.000      5.48431e-39
465.000      2.34192e-40
466.000      9.46110e-42
467.000      3.61599e-43
468.000      1.30747e-44
469.000      4.47253e-46
470.000      1.44741e-47
471.000      4.43148e-49
472.000      1.28358e-50
473.000      3.51734e-52
474.000      9.11851e-54
475.000      2.23641e-55
476.000      5.18914e-57
477.000      1.13909e-58
478.000      2.36558e-60
479.000      4.64766e-62
480.000      8.63872e-64
481.000      1.51909e-65
482.000      2.52716e-67
483.000      3.97741e-69
484.000      5.92223e-71
485.000      8.34235e-73
486.000      1.11175e-74
487.000      1.40167e-76
488.000      1.67187e-78
489.000      1.88658e-80
490.000      2.01404e-82
491.000      2.03412e-84
492.000      1.94358e-86
493.000      1.75690e-88
494.000      1.50247e-90
495.000      1.21559e-92
496.000      9.30428e-95
497.000      6.73747e-97
498.000      4.61561e-99
499.000     2.99143e-101
500.000     1.83419e-103
