# Gaussian folded, width=10 cm^-1
# [cm^-1] arbitrary
0.000      3.00000e+00
1.000      2.91796e+00
2.000      2.68508e+00
3.000      2.33749e+00
4.000      1.92514e+00
5.000      1.50000e+00
6.000      1.10570e+00
7.000      7.71085e-01
8.000      5.08727e-01
9.000      3.17529e-01
10.000      1.87500e-01
11.000      1.04746e-01
12.000      5.53591e-02
13.000      2.76796e-02
14.000      1.30935e-02
15.000      5.86053e-03
16.000      2.48475e-03
17.000      1.00707e-03
18.000      4.18901e-04
19.000      2.61553e-04
20.000      4.04047e-04
21.000      9.76038e-04
22.000      2.45019e-03
23.000      5.90090e-03
24.000      1.34948e-02
25.000      2.92708e-02
26.000      6.02119e-02
27.000      1.17471e-01
28.000      2.17371e-01
29.000      3.81523e-01
30.000      6.35193e-01
31.000      1.00318e+00
32.000      1.50299e+00
33.000      2.13627e+00
34.000      2.88067e+00
35.000      3.68534e+00
36.000      4.47324e+00
37.000      5.15152e+00
38.000      5.62891e+00
39.000      5.83572e+00
40.000      5.74050e+00
41.000      5.35787e+00
42.000      4.74483e+00
43.000      3.98690e+00
44.000      3.17862e+00
45.000      2.40461e+00
46.000      1.72636e+00
47.000      1.17704e+00
48.000      7.64123e-01
49.000      4.76917e-01
50.000      2.96015e-01
51.000      2.01892e-01
52.000      1.81172e-01
53.000      2.30071e-01
54.000      3.55040e-01
55.000      5.70742e-01
56.000      8.95420e-01
57.000      1.34394e+00
58.000      1.91938e+00
59.000      2.60513e+00
60.000      3.35993e+00
61.000      4.11860e+00
62.000      4.79975e+00
63.000      5.31971e+00
64.000      5.60940e+00
65.000      5.62950e+00
66.000      5.37918e+00
67.000      4.89580e+00
68.000      4.24584e+00
69.000      3.51020e+00
70.000      2.76831e+00
71.000      2.08551e+00
72.000      1.50636e+00
73.000      1.05417e+00
74.000      7.35674e-01
75.000      5.48147e-01
76.000      4.86547e-01
77.000      5.48506e-01
78.000      7.35929e-01
79.000      1.05285e+00
80.000      1.50019e+00
81.000      2.06886e+00
82.000      2.73354e+00
83.000      3.44938e+00
84.000      4.15373e+00
85.000      4.77345e+00
86.000      5.23692e+00
87.000      5.48811e+00
88.000      5.49916e+00
89.000      5.27842e+00
90.000      4.87187e+00
91.000      4.35791e+00
92.000      3.83709e+00
93.000      3.41918e+00
94.000      3.20975e+00
95.000      3.29783e+00
96.000      3.74528e+00
97.000      4.57810e+00
98.000      5.78061e+00
99.000      7.29353e+00
100.000      9.01762e+00
101.000      1.08236e+01
102.000      1.25675e+01
103.000      1.41091e+01
104.000      1.53301e+01
105.000      1.61479e+01
106.000      1.65233e+01
107.000      1.64609e+01
108.000      1.60035e+01
109.000      1.52212e+01
110.000      1.41992e+01
111.000      1.30259e+01
112.000      1.17830e+01
113.000      1.05396e+01
114.000      9.35051e+00
115.000      8.25627e+00
116.000      7.28527e+00
117.000      6.45541e+00
118.000      5.77559e+00
119.000      5.24748e+00
120.000      4.86838e+00
121.000      4.63546e+00
122.000      4.55032e+00
123.000      4.62225e+00
124.000      4.86807e+00
125.000      5.30771e+00
126.000      5.95613e+00
127.000      6.81411e+00
128.000      7.86091e+00
129.000      9.05178e+00
130.000      1.03216e+01
131.000      1.15941e+01
132.000      1.27939e+01
133.000      1.38584e+01
134.000      1.47459e+01
135.000      1.54378e+01
136.000      1.59359e+01
137.000      1.62552e+01
138.000      1.64152e+01
139.000      1.64333e+01
140.000      1.63213e+01
141.000      1.60861e+01
142.000      1.57340e+01
143.000      1.52744e+01
144.000      1.47233e+01
145.000      1.41034e+01
146.000      1.34413e+01
147.000      1.27646e+01
148.000      1.20985e+01
149.000      1.14643e+01
150.000      1.08791e+01
151.000      1.03554e+01
152.000      9.90131e+00
153.000      9.51872e+00
154.000      9.20321e+00
155.000      8.94429e+00
156.000      8.72780e+00
157.000      8.53967e+00
158.000      8.36998e+00
159.000      8.21603e+00
160.000      8.08329e+00
161.000      7.98400e+00
162.000      7.93405e+00
163.000      7.94905e+00
164.000      8.04093e+00
165.000      8.21571e+00
166.000      8.47264e+00
167.000      8.80438e+00
168.000      9.19765e+00
169.000      9.63387e+00
170.000      1.00900e+01
171.000      1.05397e+01
172.000      1.09557e+01
173.000      1.13126e+01
174.000      1.15904e+01
175.000      1.17771e+01
176.000      1.18697e+01
177.000      1.18739e+01
178.000      1.18019e+01
179.000      1.16698e+01
180.000      1.14958e+01
181.000      1.12983e+01
182.000      1.10960e+01
183.000      1.09066e+01
184.000      1.07464e+01
185.000      1.06291e+01
186.000      1.05644e+01
187.000      1.05566e+01
188.000      1.06046e+01
189.000      1.07025e+01
190.000      1.08399e+01
191.000      1.10038e+01
192.000      1.11784e+01
193.000      1.13458e+01
194.000      1.14864e+01
195.000      1.15798e+01
196.000      1.16072e+01
197.000      1.15551e+01
198.000      1.14182e+01
199.000      1.12019e+01
200.000      1.09219e+01
201.000      1.06015e+01
202.000      1.02675e+01
203.000      9.94447e+00
204.000      9.65099e+00
205.000      9.39718e+00
206.000      9.18437e+00
207.000      9.00668e+00
208.000      8.85376e+00
209.000      8.71389e+00
210.000      8.57713e+00
211.000      8.43787e+00
212.000      8.29664e+00
213.000      8.16091e+00
214.000      8.04460e+00
215.000      7.96626e+00
216.000      7.94601e+00
217.000      8.00167e+00
218.000      8.14509e+00
219.000      8.37941e+00
220.000      8.69801e+00
221.000      9.08517e+00
222.000      9.51816e+00
223.000      9.96994e+00
224.000      1.04118e+01
225.000      1.08153e+01
226.000      1.11545e+01
227.000      1.14078e+01
228.000      1.15605e+01
229.000      1.16071e+01
230.000      1.15539e+01
231.000      1.14183e+01
232.000      1.12267e+01
233.000      1.10089e+01
234.000      1.07909e+01
235.000      1.05892e+01
236.000      1.04075e+01
237.000      1.02384e+01
238.000      1.00684e+01
239.000      9.88643e+00
240.000      9.69015e+00
241.000      9.49011e+00
242.000      9.30813e+00
243.000      9.17169e+00
244.000      9.10585e+00
245.000      9.12589e+00
246.000      9.23312e+00
247.000      9.41511e+00
248.000      9.64986e+00
249.000      9.91224e+00
250.000      1.01803e+01
251.000      1.04393e+01
252.000      1.06826e+01
253.000      1.09091e+01
254.000      1.11190e+01
255.000      1.13091e+01
256.000      1.14690e+01
257.000      1.15810e+01
258.000      1.16224e+01
259.000      1.15710e+01
260.000      1.14124e+01
261.000      1.11460e+01
262.000      1.07884e+01
263.000      1.03719e+01
264.000      9.93796e+00
265.000      9.52735e+00
266.000      9.16999e+00
267.000      8.87722e+00
268.000      8.63948e+00
269.000      8.42993e+00
270.000      8.21320e+00
271.000      7.95682e+00
272.000      7.64250e+00
273.000      7.27447e+00
274.000      6.88248e+00
275.000      6.51872e+00
276.000      6.24858e+00
277.000      6.13714e+00
278.000      6.23412e+00
279.000      6.56093e+00
280.000      7.10304e+00
281.000      7.81016e+00
282.000      8.60493e+00
283.000      9.39824e+00
284.000      1.01077e+01
285.000      1.06741e+01
286.000      1.10714e+01
287.000      1.13064e+01
288.000      1.14101e+01
289.000      1.14218e+01
290.000      1.13730e+01
291.000      1.12764e+01
292.000      1.11235e+01
293.000      1.08915e+01
294.000      1.05566e+01
295.000      1.01072e+01
296.000      9.55413e+00
297.000      8.93148e+00
298.000      8.28948e+00
299.000      7.68169e+00
300.000      7.15107e+00
301.000      6.71989e+00
302.000      6.38651e+00
303.000      6.12958e+00
304.000      5.91740e+00
305.000      5.71893e+00
306.000      5.51237e+00
307.000      5.28932e+00
308.000      5.05410e+00
309.000      4.82000e+00
310.000      4.60506e+00
311.000      4.42915e+00
312.000      4.31318e+00
313.000      4.27930e+00
314.000      4.35031e+00
315.000      4.54690e+00
316.000      4.88274e+00
317.000      5.35891e+00
318.000      5.96026e+00
319.000      6.65582e+00
320.000      7.40404e+00
321.000      8.16145e+00
322.000      8.89200e+00
323.000      9.57377e+00
324.000      1.02008e+01
325.000      1.07793e+01
326.000      1.13201e+01
327.000      1.18303e+01
328.000      1.23062e+01
329.000      1.27325e+01
330.000      1.30861e+01
331.000      1.33446e+01
332.000      1.34961e+01
333.000      1.35472e+01
334.000      1.35255e+01
335.000      1.34761e+01
336.000      1.34534e+01
337.000      1.35100e+01
338.000      1.36879e+01
339.000      1.40124e+01
340.000      1.44908e+01
341.000      1.51149e+01
342.000      1.58636e+01
343.000      1.67070e+01
344.000      1.76096e+01
345.000      1.85331e+01
346.000      1.94408e+01
347.000      2.03007e+01
348.000      2.10881e+01
349.000      2.17857e+01
350.000      2.23796e+01
351.000      2.28542e+01
352.000      2.31868e+01
353.000      2.33457e+01
354.000      2.32934e+01
355.000      2.29938e+01
356.000      2.24237e+01
357.000      2.15810e+01
358.000      2.04905e+01
359.000      1.92022e+01
360.000      1.77844e+01
361.000      1.63133e+01
362.000      1.48615e+01
363.000      1.34896e+01
364.000      1.22404e+01
365.000      1.11382e+01
366.000      1.01906e+01
367.000      9.39249e+00
368.000      8.73034e+00
369.000      8.18682e+00
370.000      7.74433e+00
371.000      7.38812e+00
372.000      7.10854e+00
373.000      6.90241e+00
374.000      6.77344e+00
375.000      6.73121e+00
376.000      6.78886e+00
377.000      6.95960e+00
378.000      7.25224e+00
379.000      7.66659e+00
380.000      8.18934e+00
381.000      8.79118e+00
382.000      9.42613e+00
383.000      1.00337e+01
384.000      1.05445e+01
385.000      1.08886e+01
386.000      1.10064e+01
387.000      1.08594e+01
388.000      1.04391e+01
389.000      9.77074e+00
390.000      8.91065e+00
391.000      7.93712e+00
392.000      6.93644e+00
393.000      5.98772e+00
394.000      5.15038e+00
395.000      4.45731e+00
396.000      3.91487e+00
397.000      3.50896e+00
398.000      3.21438e+00
399.000      3.00464e+00
400.000      2.85918e+00
401.000      2.76644e+00
402.000      2.72240e+00
403.000      2.72575e+00
404.000      2.77192e+00
405.000      2.84833e+00
406.000      2.93298e+00
407.000      2.99700e+00
408.000      3.01036e+00
409.000      2.94899e+00
410.000      2.80082e+00
411.000      2.56891e+00
412.000      2.27104e+00
413.000      1.93595e+00
414.000      1.59766e+00
415.000      1.28934e+00
416.000      1.03806e+00
417.000      8.61136e-01
418.000      7.64331e-01
419.000      7.41793e-01
420.000      7.77518e-01
421.000      8.48157e-01
422.000      9.26972e-01
423.000      9.88450e-01
424.000      1.01280e+00
425.000      9.89314e-01
426.000      9.17638e-01
427.000      8.06687e-01
428.000      6.71477e-01
429.000      5.29002e-01
430.000      3.94356e-01
431.000      2.78150e-01
432.000      1.85613e-01
433.000      1.17184e-01
434.000      6.99917e-02
435.000      3.95500e-02
436.000      2.11429e-02
437.000      1.06931e-02
438.000      5.11631e-03
439.000      2.31595e-03
440.000      9.91790e-04
441.000      4.01816e-04
442.000      1.54011e-04
443.000      5.58465e-05
444.000      1.91583e-05
445.000      6.21777e-06
446.000      1.90911e-06
447.000      5.54554e-07
448.000      1.52397e-07
449.000      3.96209e-08
450.000      9.74519e-09
451.000      2.26764e-09
452.000      4.99201e-10
453.000      1.03967e-10
454.000      2.04848e-11
455.000      3.81844e-12
456.000      6.73375e-13
457.000      1.12343e-13
458.000      1.77318e-14
459.000      2.64776e-15
460.000      3.74042e-16
461.000      4.99897e-17
462.000      6.32060e-18
463.000      7.56055e-19
464.000      8.55590e-20
465.000      9.16001e-21
466.000      9.27778e-22
467.000      8.89016e-23
468.000      8.05921e-24
469.000      6.91183e-25
470.000      5.60804e-26
471.000      4.30474e-27
472.000      3.12608e-28
473.000      2.14769e-29
474.000      1.39592e-30
475.000      8.58354e-32
476.000      4.99333e-33
477.000      2.74810e-34
478.000      1.43084e-35
479.000      7.04803e-37
480.000      3.28444e-38
481.000      1.44802e-39
482.000      6.03953e-41
483.000      2.38314e-42
484.000      8.89641e-44
485.000      3.14194e-45
486.000      1.04978e-46
487.000      3.31829e-48
488.000      9.92315e-50
489.000      2.80739e-51
490.000      7.51402e-53
491.000      1.90266e-54
492.000      4.55791e-56
493.000      1.03297e-57
494.000      2.21478e-59
495.000      4.49250e-61
496.000      8.62112e-63
497.000      1.56515e-64
498.000      2.68824e-66
499.000      4.36814e-68
500.000      6.71496e-70
