# Gaussian folded, width=10 cm^-1
# [cm^-1] arbitrary
0.000      3.00000e+00
1.000      2.91796e+00
2.000      2.68508e+00
3.000      2.33749e+00
4.000      1.92514e+00
5.000      1.50000e+00
6.000      1.10570e+00
7.000      7.71085e-01
8.000      5.08727e-01
9.000      3.17529e-01
10.000      1.87500e-01
11.000      1.04746e-01
12.000      5.53590e-02
13.000      2.76795e-02
14.000      1.30932e-02
15.000      5.85939e-03
16.000      2.48077e-03
17.000      9.93871e-04
18.000      3.77508e-04
19.000      1.38565e-04
20.000      5.79780e-05
21.000      5.39303e-05
22.000      1.23958e-04
23.000      3.45828e-04
24.000      9.40965e-04
25.000      2.43152e-03
26.000      5.95120e-03
27.000      1.37925e-02
28.000      3.02679e-02
29.000      6.28973e-02
30.000      1.23764e-01
31.000      2.30609e-01
32.000      4.06893e-01
33.000      6.79848e-01
34.000      1.07566e+00
35.000      1.61166e+00
36.000      2.28670e+00
37.000      3.07248e+00
38.000      3.90944e+00
39.000      4.71072e+00
40.000      5.37540e+00
41.000      5.80880e+00
42.000      5.94451e+00
43.000      5.76104e+00
44.000      5.28741e+00
45.000      4.59558e+00
46.000      3.78265e+00
47.000      2.94855e+00
48.000      2.17659e+00
49.000      1.52162e+00
50.000      1.00743e+00
51.000      6.31801e-01
52.000      3.75661e-01
53.000      2.12644e-01
54.000      1.16735e-01
55.000      6.70448e-02
56.000      5.00832e-02
57.000      6.04689e-02
58.000      1.00957e-01
59.000      1.82211e-01
60.000      3.22128e-01
61.000      5.44034e-01
62.000      8.72896e-01
63.000      1.32906e+00
64.000      1.91995e+00
65.000      2.63153e+00
66.000      3.42233e+00
67.000      4.22329e+00
68.000      4.94551e+00
69.000      5.49561e+00
70.000      5.79523e+00
71.000      5.79929e+00
72.000      5.50711e+00
73.000      4.96256e+00
74.000      4.24337e+00
75.000      3.44298e+00
76.000      2.65104e+00
77.000      1.93801e+00
78.000      1.34739e+00
79.000      8.96210e-01
80.000      5.81575e-01
81.000      3.90175e-01
82.000      3.07565e-01
83.000      3.24998e-01
84.000      4.42634e-01
85.000      6.68815e-01
86.000      1.01568e+00
87.000      1.49188e+00
88.000      2.09402e+00
89.000      2.79891e+00
90.000      3.55942e+00
91.000      4.30632e+00
92.000      4.95706e+00
93.000      5.43027e+00
94.000      5.66275e+00
95.000      5.62411e+00
96.000      5.32499e+00
97.000      4.81626e+00
98.000      4.18008e+00
99.000      3.51558e+00
100.000      2.92366e+00
101.000      2.49442e+00
102.000      2.29903e+00
103.000      2.38597e+00
104.000      2.77978e+00
105.000      3.48069e+00
106.000      4.46426e+00
107.000      5.68138e+00
108.000      7.06015e+00
109.000      8.51092e+00
110.000      9.93507e+00
111.000      1.12366e+01
112.000      1.23341e+01
113.000      1.31710e+01
114.000      1.37202e+01
115.000      1.39842e+01
116.000      1.39891e+01
117.000      1.37749e+01
118.000      1.33863e+01
119.000      1.28638e+01
120.000      1.22389e+01
121.000      1.15332e+01
122.000      1.07604e+01
123.000      9.93133e+00
124.000      9.05933e+00
125.000      8.16475e+00
126.000      7.27733e+00
127.000      6.43516e+00
128.000      5.68016e+00
129.000      5.05106e+00
130.000      4.57606e+00
131.000      4.26781e+00
132.000      4.12287e+00
133.000      4.12645e+00
134.000      4.26074e+00
135.000      4.51374e+00
136.000      4.88463e+00
137.000      5.38307e+00
138.000      6.02222e+00
139.000      6.80806e+00
140.000      7.72933e+00
141.000      8.75224e+00
142.000      9.82229e+00
143.000      1.08727e+01
144.000      1.18365e+01
145.000      1.26587e+01
146.000      1.33049e+01
147.000      1.37637e+01
148.000      1.40450e+01
149.000      1.41733e+01
150.000      1.41804e+01
151.000      1.40978e+01
152.000      1.39530e+01
153.000      1.37667e+01
154.000      1.35544e+01
155.000      1.33278e+01
156.000      1.30972e+01
157.000      1.28718e+01
158.000      1.26589e+01
159.000      1.24615e+01
160.000      1.22752e+01
161.000      1.20863e+01
162.000      1.18720e+01
163.000      1.16031e+01
164.000      1.12495e+01
165.000      1.07873e+01
166.000      1.02054e+01
167.000      9.51108e+00
168.000      8.73227e+00
169.000      7.91658e+00
170.000      7.12654e+00
171.000      6.43145e+00
172.000      5.89674e+00
173.000      5.57256e+00
174.000      5.48383e+00
175.000      5.62454e+00
176.000      5.95808e+00
177.000      6.42423e+00
178.000      6.95135e+00
179.000      7.47044e+00
180.000      7.92758e+00
181.000      8.29130e+00
182.000      8.55365e+00
183.000      8.72559e+00
184.000      8.82903e+00
185.000      8.88840e+00
186.000      8.92435e+00
187.000      8.95047e+00
188.000      8.97276e+00
189.000      8.99081e+00
190.000      8.99966e+00
191.000      8.99168e+00
192.000      8.95865e+00
193.000      8.89402e+00
194.000      8.79515e+00
195.000      8.66483e+00
196.000      8.51171e+00
197.000      8.34959e+00
198.000      8.19599e+00
199.000      8.07082e+00
200.000      7.99516e+00
201.000      7.98985e+00
202.000      8.07296e+00
203.000      8.25575e+00
204.000      8.53794e+00
205.000      8.90382e+00
206.000      9.32125e+00
207.000      9.74484e+00
208.000      1.01230e+01
209.000      1.04070e+01
210.000      1.05593e+01
211.000      1.05589e+01
212.000      1.04021e+01
213.000      1.01003e+01
214.000      9.67515e+00
215.000      9.15529e+00
216.000      8.57347e+00
217.000      7.96587e+00
218.000      7.37124e+00
219.000      6.82887e+00
220.000      6.37469e+00
221.000      6.03640e+00
222.000      5.82936e+00
223.000      5.75489e+00
224.000      5.80166e+00
225.000      5.94934e+00
226.000      6.17261e+00
227.000      6.44400e+00
228.000      6.73510e+00
229.000      7.01701e+00
230.000      7.26166e+00
231.000      7.44497e+00
232.000      7.55130e+00
233.000      7.57766e+00
234.000      7.53516e+00
235.000      7.44671e+00
236.000      7.34119e+00
237.000      7.24609e+00
238.000      7.18127e+00
239.000      7.15553e+00
240.000      7.16679e+00
241.000      7.20480e+00
242.000      7.25507e+00
243.000      7.30246e+00
244.000      7.33384e+00
245.000      7.33975e+00
246.000      7.31536e+00
247.000      7.26098e+00
248.000      7.18180e+00
249.000      7.08683e+00
250.000      6.98684e+00
251.000      6.89170e+00
252.000      6.80805e+00
253.000      6.73804e+00
254.000      6.67972e+00
255.000      6.62924e+00
256.000      6.58388e+00
257.000      6.54509e+00
258.000      6.52039e+00
259.000      6.52322e+00
260.000      6.57067e+00
261.000      6.67912e+00
262.000      6.85904e+00
263.000      7.11020e+00
264.000      7.41913e+00
265.000      7.75980e+00
266.000      8.09782e+00
267.000      8.39679e+00
268.000      8.62456e+00
269.000      8.75711e+00
270.000      8.77896e+00
271.000      8.68063e+00
272.000      8.45538e+00
273.000      8.09785e+00
274.000      7.60592e+00
275.000      6.98554e+00
276.000      6.25632e+00
277.000      5.45502e+00
278.000      4.63492e+00
279.000      3.86049e+00
280.000      3.19875e+00
281.000      2.70929e+00
282.000      2.43551e+00
283.000      2.39819e+00
284.000      2.59268e+00
285.000      2.98943e+00
286.000      3.53830e+00
287.000      4.17594e+00
288.000      4.83573e+00
289.000      5.45835e+00
290.000      6.00102e+00
291.000      6.44284e+00
292.000      6.78503e+00
293.000      7.04609e+00
294.000      7.25359e+00
295.000      7.43539e+00
296.000      7.61284e+00
297.000      7.79768e+00
298.000      7.99266e+00
299.000      8.19464e+00
300.000      8.39839e+00
301.000      8.59925e+00
302.000      8.79400e+00
303.000      8.97999e+00
304.000      9.15357e+00
305.000      9.30886e+00
306.000      9.43774e+00
307.000      9.53114e+00
308.000      9.58078e+00
309.000      9.58093e+00
310.000      9.52948e+00
311.000      9.42869e+00
312.000      9.28618e+00
313.000      9.11642e+00
314.000      8.94228e+00
315.000      8.79557e+00
316.000      8.71534e+00
317.000      8.74350e+00
318.000      8.91853e+00
319.000      9.26892e+00
320.000      9.80825e+00
321.000      1.05328e+01
322.000      1.14221e+01
323.000      1.24407e+01
324.000      1.35420e+01
325.000      1.46724e+01
326.000      1.57755e+01
327.000      1.67981e+01
328.000      1.76947e+01
329.000      1.84323e+01
330.000      1.89916e+01
331.000      1.93662e+01
332.000      1.95593e+01
333.000      1.95800e+01
334.000      1.94398e+01
335.000      1.91524e+01
336.000      1.87361e+01
337.000      1.82183e+01
338.000      1.76393e+01
339.000      1.70540e+01
340.000      1.65293e+01
341.000      1.61364e+01
342.000      1.59392e+01
343.000      1.59828e+01
344.000      1.62843e+01
345.000      1.68303e+01
346.000      1.75807e+01
347.000      1.84800e+01
348.000      1.94705e+01
349.000      2.05046e+01
350.000      2.15514e+01
351.000      2.25951e+01
352.000      2.36272e+01
353.000      2.46343e+01
354.000      2.55870e+01
355.000      2.64347e+01
356.000      2.71078e+01
357.000      2.75285e+01
358.000      2.76264e+01
359.000      2.73551e+01
360.000      2.67048e+01
361.000      2.57088e+01
362.000      2.44385e+01
363.000      2.29915e+01
364.000      2.14709e+01
365.000      1.99648e+01
366.000      1.85291e+01
367.000      1.71805e+01
368.000      1.59021e+01
369.000      1.46599e+01
370.000      1.34244e+01
371.000      1.21897e+01
372.000      1.09838e+01
373.000      9.86511e+00
374.000      8.90918e+00
375.000      8.18981e+00
376.000      7.76225e+00
377.000      7.65416e+00
378.000      7.86642e+00
379.000      8.38169e+00
380.000      9.17577e+00
381.000      1.02262e+01
382.000      1.15141e+01
383.000      1.30175e+01
384.000      1.46997e+01
385.000      1.64953e+01
386.000      1.83014e+01
387.000      1.99764e+01
388.000      2.13513e+01
389.000      2.22515e+01
390.000      2.25258e+01
391.000      2.20771e+01
392.000      2.08876e+01
393.000      1.90288e+01
394.000      1.66548e+01
395.000      1.39772e+01
396.000      1.12279e+01
397.000      8.62049e+00
398.000      6.31784e+00
399.000      4.41562e+00
400.000      2.94197e+00
401.000      1.87088e+00
402.000      1.14290e+00
403.000      6.86333e-01
404.000      4.34147e-01
405.000      3.34226e-01
406.000      3.52994e-01
407.000      4.73785e-01
408.000      6.91738e-01
409.000      1.00687e+00
410.000      1.41683e+00
411.000      1.91072e+00
412.000      2.46539e+00
413.000      3.04515e+00
414.000      3.60516e+00
415.000      4.09777e+00
416.000      4.48003e+00
417.000      4.72026e+00
418.000      4.80201e+00
419.000      4.72466e+00
420.000      4.50142e+00
421.000      4.15574e+00
422.000      3.71769e+00
423.000      3.22095e+00
424.000      2.70042e+00
425.000      2.19000e+00
426.000      1.72042e+00
427.000      1.31692e+00
428.000      9.97367e-01
429.000      7.71131e-01
430.000      6.38792e-01
431.000      5.92652e-01
432.000      6.17712e-01
433.000      6.93066e-01
434.000      7.93870e-01
435.000      8.94092e-01
436.000      9.69968e-01
437.000      1.00364e+00
438.000      9.86008e-01
439.000      9.17896e-01
440.000      8.08965e-01
441.000      6.74713e-01
442.000      5.32458e-01
443.000      3.97554e-01
444.000      2.80825e-01
445.000      1.87672e-01
446.000      1.18654e-01
447.000      7.09712e-02
448.000      4.01607e-02
449.000      2.15000e-02
450.000      1.08891e-02
451.000      5.21754e-03
452.000      2.36514e-03
453.000      1.01429e-03
454.000      4.11518e-04
455.000      1.57955e-04
456.000      5.73578e-05
457.000      1.97047e-05
458.000      6.40423e-06
459.000      1.96916e-06
460.000      5.72810e-07
461.000      1.57637e-07
462.000      4.10417e-08
463.000      1.01090e-08
464.000      2.35565e-09
465.000      5.19313e-10
466.000      1.08309e-10
467.000      2.13708e-11
468.000      3.98926e-12
469.000      7.04500e-13
470.000      1.17703e-13
471.000      1.86043e-14
472.000      2.78199e-15
473.000      3.93563e-16
474.000      5.26735e-17
475.000      6.66940e-18
476.000      7.98913e-19
477.000      9.05377e-20
478.000      9.70683e-21
479.000      9.84561e-22
480.000      9.44769e-23
481.000      8.57682e-24
482.000      7.36621e-25
483.000      5.98522e-26
484.000      4.60080e-27
485.000      3.34583e-28
486.000      2.30193e-29
487.000      1.49830e-30
488.000      9.22620e-32
489.000      5.37482e-33
490.000      2.96226e-34
491.000      1.54454e-35
492.000      7.61892e-37
493.000      3.55554e-38
494.000      1.56977e-39
495.000      6.55664e-41
496.000      2.59087e-42
497.000      9.68564e-44
498.000      3.42553e-45
499.000      1.14616e-46
500.000      3.62811e-48
