# Gaussian folded, width=10 cm^-1
# [cm^-1] arbitrary
0.000      3.00000e+00
1.000      2.91796e+00
2.000      2.68508e+00
3.000      2.33749e+00
4.000      1.92514e+00
5.000      1.50000e+00
6.000      1.10570e+00
7.000      7.71085e-01
8.000      5.08727e-01
9.000      3.17529e-01
10.000      1.87500e-01
11.000      1.04746e-01
12.000      5.53590e-02
13.000      2.76796e-02
14.000      1.30935e-02
15.000      5.86044e-03
16.000      2.48448e-03
17.000      1.00626e-03
18.000      4.16666e-04
19.000      2.55729e-04
20.000      3.89816e-04
21.000      9.43497e-04
22.000      2.38069e-03
23.000      5.76269e-03
24.000      1.32400e-02
25.000      2.88378e-02
26.000      5.95411e-02
27.000      1.16540e-01
28.000      2.16254e-01
29.000      3.80469e-01
30.000      6.34696e-01
31.000      1.00400e+00
32.000      1.50610e+00
33.000      2.14262e+00
34.000      2.89092e+00
35.000      3.69954e+00
36.000      4.49053e+00
37.000      5.17016e+00
38.000      5.64651e+00
39.000      5.84974e+00
40.000      5.74884e+00
41.000      5.35940e+00
42.000      4.73963e+00
43.000      3.97618e+00
44.000      3.16432e+00
45.000      2.38892e+00
46.000      1.71121e+00
47.000      1.16385e+00
48.000      7.53597e-01
49.000      4.69146e-01
50.000      2.90558e-01
51.000      1.97843e-01
52.000      1.77122e-01
53.000      2.23974e-01
54.000      3.44108e-01
55.000      5.51554e-01
56.000      8.64475e-01
57.000      1.29878e+00
58.000      1.86015e+00
59.000      2.53607e+00
60.000      3.29008e+00
61.000      4.06092e+00
62.000      4.76840e+00
63.000      5.32601e+00
64.000      5.65784e+00
65.000      5.71541e+00
66.000      5.48919e+00
67.000      5.01127e+00
68.000      4.34793e+00
69.000      3.58470e+00
70.000      2.80864e+00
71.000      2.09288e+00
72.000      1.48752e+00
73.000      1.01809e+00
74.000      6.90363e-01
75.000      4.98728e-01
76.000      4.34908e-01
77.000      4.94336e-01
78.000      6.78580e-01
79.000      9.93379e-01
80.000      1.44288e+00
81.000      2.02174e+00
82.000      2.70734e+00
83.000      3.45513e+00
84.000      4.19937e+00
85.000      4.86048e+00
86.000      5.35841e+00
87.000      5.62898e+00
88.000      5.63910e+00
89.000      5.39659e+00
90.000      4.95204e+00
91.000      4.39238e+00
92.000      3.82827e+00
93.000      3.37852e+00
94.000      3.15483e+00
95.000      3.24854e+00
96.000      3.72006e+00
97.000      4.59068e+00
98.000      5.83734e+00
99.000      7.39135e+00
100.000      9.14299e+00
101.000      1.09529e+01
102.000      1.26698e+01
103.000      1.41512e+01
104.000      1.52833e+01
105.000      1.59950e+01
106.000      1.62635e+01
107.000      1.61113e+01
108.000      1.55965e+01
109.000      1.47983e+01
110.000      1.38031e+01
111.000      1.26933e+01
112.000      1.15388e+01
113.000      1.03949e+01
114.000      9.30212e+00
115.000      8.28930e+00
116.000      7.37655e+00
117.000      6.57784e+00
118.000      5.90262e+00
119.000      5.35729e+00
120.000      4.94681e+00
121.000      4.67713e+00
122.000      4.55756e+00
123.000      4.60214e+00
124.000      4.82868e+00
125.000      5.25489e+00
126.000      5.89216e+00
127.000      6.73848e+00
128.000      7.77278e+00
129.000      8.95275e+00
130.000      1.02172e+01
131.000      1.14929e+01
132.000      1.27044e+01
133.000      1.37852e+01
134.000      1.46862e+01
135.000      1.53820e+01
136.000      1.58710e+01
137.000      1.61719e+01
138.000      1.63159e+01
139.000      1.63375e+01
140.000      1.62657e+01
141.000      1.61179e+01
142.000      1.58984e+01
143.000      1.56006e+01
144.000      1.52136e+01
145.000      1.47297e+01
146.000      1.41508e+01
147.000      1.34922e+01
148.000      1.27816e+01
149.000      1.20539e+01
150.000      1.13444e+01
151.000      1.06813e+01
152.000      1.00822e+01
153.000      9.55342e+00
154.000      9.09371e+00
155.000      8.69974e+00
156.000      8.37079e+00
157.000      8.11094e+00
158.000      7.92800e+00
159.000      7.82982e+00
160.000      7.81999e+00
161.000      7.89469e+00
162.000      8.04185e+00
163.000      8.24277e+00
164.000      8.47528e+00
165.000      8.71759e+00
166.000      8.95168e+00
167.000      9.16613e+00
168.000      9.35773e+00
169.000      9.53171e+00
170.000      9.70001e+00
171.000      9.87778e+00
172.000      1.00785e+01
173.000      1.03093e+01
174.000      1.05675e+01
175.000      1.08405e+01
176.000      1.11080e+01
177.000      1.13467e+01
178.000      1.15357e+01
179.000      1.16606e+01
180.000      1.17160e+01
181.000      1.17063e+01
182.000      1.16442e+01
183.000      1.15481e+01
184.000      1.14392e+01
185.000      1.13386e+01
186.000      1.12641e+01
187.000      1.12284e+01
188.000      1.12370e+01
189.000      1.12882e+01
190.000      1.13734e+01
191.000      1.14792e+01
192.000      1.15895e+01
193.000      1.16881e+01
194.000      1.17605e+01
195.000      1.17947e+01
196.000      1.17822e+01
197.000      1.17182e+01
198.000      1.16025e+01
199.000      1.14406e+01
200.000      1.12425e+01
201.000      1.10216e+01
202.000      1.07896e+01
203.000      1.05523e+01
204.000      1.03056e+01
205.000      1.00340e+01
206.000      9.71462e+00
207.000      9.32435e+00
208.000      8.84905e+00
209.000      8.29224e+00
210.000      7.67985e+00
211.000      7.05970e+00
212.000      6.49526e+00
213.000      6.05497e+00
214.000      5.79940e+00
215.000      5.76903e+00
216.000      5.97537e+00
217.000      6.39766e+00
218.000      6.98622e+00
219.000      7.67195e+00
220.000      8.37991e+00
221.000      9.04351e+00
222.000      9.61567e+00
223.000      1.00741e+01
224.000      1.04200e+01
225.000      1.06705e+01
226.000      1.08498e+01
227.000      1.09791e+01
228.000      1.10718e+01
229.000      1.11322e+01
230.000      1.11584e+01
231.000      1.11473e+01
232.000      1.10990e+01
233.000      1.10189e+01
234.000      1.09171e+01
235.000      1.08047e+01
236.000      1.06905e+01
237.000      1.05786e+01
238.000      1.04691e+01
239.000      1.03602e+01
240.000      1.02523e+01
241.000      1.01501e+01
242.000      1.00626e+01
243.000      1.00003e+01
244.000      9.97152e+00
245.000      9.97917e+00
246.000      1.00196e+01
247.000      1.00847e+01
248.000      1.01648e+01
249.000      1.02523e+01
250.000      1.03438e+01
251.000      1.04395e+01
252.000      1.05414e+01
253.000      1.06504e+01
254.000      1.07634e+01
255.000      1.08714e+01
256.000      1.09591e+01
257.000      1.10061e+01
258.000      1.09899e+01
259.000      1.08904e+01
260.000      1.06944e+01
261.000      1.03999e+01
262.000      1.00183e+01
263.000      9.57497e+00
264.000      9.10580e+00
265.000      8.65265e+00
266.000      8.25588e+00
267.000      7.94633e+00
268.000      7.73808e+00
269.000      7.62445e+00
270.000      7.57928e+00
271.000      7.56418e+00
272.000      7.54038e+00
273.000      7.48174e+00
274.000      7.38431e+00
275.000      7.26937e+00
276.000      7.17846e+00
277.000      7.16255e+00
278.000      7.26890e+00
279.000      7.52955e+00
280.000      7.95429e+00
281.000      8.52915e+00
282.000      9.21971e+00
283.000      9.97783e+00
284.000      1.07498e+01
285.000      1.14839e+01
286.000      1.21364e+01
287.000      1.26730e+01
288.000      1.30683e+01
289.000      1.33024e+01
290.000      1.33591e+01
291.000      1.32262e+01
292.000      1.29005e+01
293.000      1.23932e+01
294.000      1.17346e+01
295.000      1.09743e+01
296.000      1.01749e+01
297.000      9.40174e+00
298.000      8.71120e+00
299.000      8.14170e+00
300.000      7.70873e+00
301.000      7.40491e+00
302.000      7.20379e+00
303.000      7.06622e+00
304.000      6.94788e+00
305.000      6.80736e+00
306.000      6.61373e+00
307.000      6.35224e+00
308.000      6.02696e+00
309.000      5.65919e+00
310.000      5.28209e+00
311.000      4.93299e+00
312.000      4.64599e+00
313.000      4.44693e+00
314.000      4.35176e+00
315.000      4.36779e+00
316.000      4.49583e+00
317.000      4.73162e+00
318.000      5.06561e+00
319.000      5.48192e+00
320.000      5.95797e+00
321.000      6.46640e+00
322.000      6.97932e+00
323.000      7.47380e+00
324.000      7.93636e+00
325.000      8.36445e+00
326.000      8.76434e+00
327.000      9.14615e+00
328.000      9.51835e+00
329.000      9.88384e+00
330.000      1.02394e+01
331.000      1.05788e+01
332.000      1.08974e+01
333.000      1.11983e+01
334.000      1.14953e+01
335.000      1.18133e+01
336.000      1.21856e+01
337.000      1.26475e+01
338.000      1.32294e+01
339.000      1.39498e+01
340.000      1.48103e+01
341.000      1.57939e+01
342.000      1.68671e+01
343.000      1.79847e+01
344.000      1.90976e+01
345.000      2.01604e+01
346.000      2.11375e+01
347.000      2.20059e+01
348.000      2.27542e+01
349.000      2.33779e+01
350.000      2.38733e+01
351.000      2.42311e+01
352.000      2.44322e+01
353.000      2.44479e+01
354.000      2.42441e+01
355.000      2.37894e+01
356.000      2.30648e+01
357.000      2.20720e+01
358.000      2.08383e+01
359.000      1.94148e+01
360.000      1.78700e+01
361.000      1.62790e+01
362.000      1.47129e+01
363.000      1.32304e+01
364.000      1.18743e+01
365.000      1.06714e+01
366.000      9.63480e+00
367.000      8.76675e+00
368.000      8.06046e+00
369.000      7.50203e+00
370.000      7.07289e+00
371.000      6.75364e+00
372.000      6.52863e+00
373.000      6.38985e+00
374.000      6.33855e+00
375.000      6.38351e+00
376.000      6.53664e+00
377.000      6.80737e+00
378.000      7.19765e+00
379.000      7.69904e+00
380.000      8.29164e+00
381.000      8.94441e+00
382.000      9.61591e+00
383.000      1.02551e+01
384.000      1.08033e+01
385.000      1.11977e+01
386.000      1.13792e+01
387.000      1.13021e+01
388.000      1.09447e+01
389.000      1.03174e+01
390.000      9.46508e+00
391.000      8.46081e+00
392.000      7.39424e+00
393.000      6.35556e+00
394.000      5.42045e+00
395.000      4.63953e+00
396.000      4.03456e+00
397.000      3.60108e+00
398.000      3.31585e+00
399.000      3.14595e+00
400.000      3.05710e+00
401.000      3.01906e+00
402.000      3.00795e+00
403.000      3.00582e+00
404.000      2.99909e+00
405.000      2.97695e+00
406.000      2.93066e+00
407.000      2.85360e+00
408.000      2.74182e+00
409.000      2.59460e+00
410.000      2.41458e+00
411.000      2.20781e+00
412.000      1.98371e+00
413.000      1.75491e+00
414.000      1.53655e+00
415.000      1.34464e+00
416.000      1.19338e+00
417.000      1.09178e+00
418.000      1.04075e+00
419.000      1.03181e+00
420.000      1.04814e+00
421.000      1.06824e+00
422.000      1.07095e+00
423.000      1.04058e+00
424.000      9.70340e-01
425.000      8.63168e-01
426.000      7.29869e-01
427.000      5.85441e-01
428.000      4.44939e-01
429.000      3.20193e-01
430.000      2.18098e-01
431.000      1.40582e-01
432.000      8.57417e-02
433.000      4.94779e-02
434.000      2.70128e-02
435.000      1.39527e-02
436.000      6.81822e-03
437.000      3.15214e-03
438.000      1.37867e-03
439.000      5.70470e-04
440.000      2.23318e-04
441.000      8.27054e-05
442.000      2.89775e-05
443.000      9.60519e-06
444.000      3.01210e-06
445.000      8.93612e-07
446.000      2.50811e-07
447.000      6.65982e-08
448.000      1.67300e-08
449.000      3.97600e-09
450.000      8.93954e-10
451.000      1.90152e-10
452.000      3.82653e-11
453.000      7.28494e-12
454.000      1.31209e-12
455.000      2.23574e-13
456.000      3.60409e-14
457.000      5.49651e-15
458.000      7.93042e-16
459.000      1.08249e-16
460.000      1.39787e-17
461.000      1.70777e-18
462.000      1.97383e-19
463.000      2.15827e-20
464.000      2.23265e-21
465.000      2.18501e-22
466.000      2.02304e-23
467.000      1.77203e-24
468.000      1.46844e-25
469.000      1.15122e-26
470.000      8.53847e-28
471.000      5.99126e-29
472.000      3.97716e-30
473.000      2.49774e-31
474.000      1.48401e-32
475.000      8.34154e-34
476.000      4.43580e-35
477.000      2.23160e-36
478.000      1.06213e-37
479.000      4.78251e-39
480.000      2.03729e-40
481.000      8.21044e-42
482.000      3.13039e-43
483.000      1.12914e-44
484.000      3.85313e-46
485.000      1.24394e-47
486.000      3.79927e-49
487.000      1.09779e-50
488.000      3.00094e-52
489.000      7.76090e-54
490.000      1.89882e-55
491.000      4.39516e-57
492.000      9.62459e-59
493.000      1.99392e-60
494.000      3.90796e-62
495.000      7.24621e-64
496.000      1.27113e-65
497.000      2.10952e-67
498.000      3.31206e-69
499.000      4.91959e-71
500.000      6.91317e-73
