# Gaussian folded, width=10 cm^-1
# [cm^-1] arbitrary
0.000      3.00000e+00
1.000      2.91796e+00
2.000      2.68508e+00
3.000      2.33749e+00
4.000      1.92514e+00
5.000      1.50000e+00
6.000      1.10570e+00
7.000      7.71085e-01
8.000      5.08727e-01
9.000      3.17529e-01
10.000      1.87500e-01
11.000      1.04746e-01
12.000      5.53590e-02
13.000      2.76796e-02
14.000      1.30935e-02
15.000      5.86045e-03
16.000      2.48449e-03
17.000      1.00631e-03
18.000      4.16828e-04
19.000      2.56228e-04
20.000      3.91268e-04
21.000      9.47476e-04
22.000      2.39099e-03
23.000      5.78780e-03
24.000      1.32977e-02
25.000      2.89630e-02
26.000      5.97964e-02
27.000      1.17030e-01
28.000      2.17139e-01
29.000      3.81967e-01
30.000      6.37076e-01
31.000      1.00754e+00
32.000      1.51100e+00
33.000      2.14894e+00
34.000      2.89845e+00
35.000      3.70775e+00
36.000      4.49860e+00
37.000      5.17708e+00
38.000      5.65129e+00
39.000      5.85163e+00
40.000      5.74753e+00
41.000      5.35511e+00
42.000      4.73304e+00
43.000      3.96824e+00
44.000      3.15606e+00
45.000      2.38122e+00
46.000      1.70469e+00
47.000      1.15880e+00
48.000      7.50114e-01
49.000      4.67207e-01
50.000      2.90205e-01
51.000      1.99324e-01
52.000      1.81000e-01
53.000      2.31162e-01
54.000      3.55775e-01
55.000      5.68856e-01
56.000      8.88084e-01
57.000      1.32826e+00
58.000      1.89338e+00
59.000      2.56893e+00
60.000      3.31675e+00
61.000      4.07493e+00
62.000      4.76429e+00
63.000      5.30116e+00
64.000      5.61376e+00
65.000      5.65784e+00
66.000      5.42700e+00
67.000      4.95413e+00
68.000      4.30389e+00
69.000      3.55831e+00
70.000      2.80026e+00
71.000      2.09929e+00
72.000      1.50343e+00
73.000      1.03778e+00
74.000      7.09046e-01
75.000      5.13258e-01
76.000      4.43935e-01
77.000      4.98053e-01
78.000      6.78304e-01
79.000      9.91041e-01
80.000      1.44044e+00
81.000      2.02049e+00
82.000      2.70730e+00
83.000      3.45466e+00
84.000      4.19547e+00
85.000      4.84984e+00
86.000      5.33913e+00
87.000      5.60230e+00
88.000      5.61050e+00
89.000      5.37565e+00
90.000      4.95097e+00
91.000      4.42343e+00
92.000      3.90082e+00
93.000      3.49625e+00
94.000      3.31348e+00
95.000      3.43436e+00
96.000      3.90941e+00
97.000      4.75142e+00
98.000      5.93247e+00
99.000      7.38524e+00
100.000      9.00930e+00
101.000      1.06825e+01
102.000      1.22762e+01
103.000      1.36715e+01
104.000      1.47736e+01
105.000      1.55210e+01
106.000      1.58878e+01
107.000      1.58813e+01
108.000      1.55342e+01
109.000      1.48963e+01
110.000      1.40272e+01
111.000      1.29906e+01
112.000      1.18519e+01
113.000      1.06756e+01
114.000      9.52353e+00
115.000      8.45040e+00
116.000      7.49909e+00
117.000      6.69579e+00
118.000      6.04793e+00
119.000      5.54633e+00
120.000      5.17214e+00
121.000      4.90704e+00
122.000      4.74386e+00
123.000      4.69412e+00
124.000      4.78940e+00
125.000      5.07532e+00
126.000      5.59895e+00
127.000      6.39289e+00
128.000      7.46018e+00
129.000      8.76496e+00
130.000      1.02316e+01
131.000      1.17532e+01
132.000      1.32082e+01
133.000      1.44802e+01
134.000      1.54781e+01
135.000      1.61501e+01
136.000      1.64904e+01
137.000      1.65356e+01
138.000      1.63531e+01
139.000      1.60241e+01
140.000      1.56257e+01
141.000      1.52167e+01
142.000      1.48302e+01
143.000      1.44737e+01
144.000      1.41345e+01
145.000      1.37898e+01
146.000      1.34152e+01
147.000      1.29925e+01
148.000      1.25127e+01
149.000      1.19772e+01
150.000      1.13958e+01
151.000      1.07847e+01
152.000      1.01644e+01
153.000      9.55877e+00
154.000      8.99359e+00
155.000      8.49535e+00
156.000      8.08834e+00
157.000      7.79103e+00
158.000      7.61237e+00
159.000      7.54965e+00
160.000      7.58899e+00
161.000      7.70894e+00
162.000      7.88616e+00
163.000      8.10138e+00
164.000      8.34370e+00
165.000      8.61156e+00
166.000      8.91026e+00
167.000      9.24677e+00
168.000      9.62384e+00
169.000      1.00352e+01
170.000      1.04637e+01
171.000      1.08830e+01
172.000      1.12617e+01
173.000      1.15699e+01
174.000      1.17848e+01
175.000      1.18956e+01
176.000      1.19048e+01
177.000      1.18279e+01
178.000      1.16903e+01
179.000      1.15229e+01
180.000      1.13564e+01
181.000      1.12153e+01
182.000      1.11125e+01
183.000      1.10464e+01
184.000      1.10013e+01
185.000      1.09532e+01
186.000      1.08784e+01
187.000      1.07642e+01
188.000      1.06165e+01
189.000      1.04616e+01
190.000      1.03409e+01
191.000      1.03003e+01
192.000      1.03760e+01
193.000      1.05830e+01
194.000      1.09084e+01
195.000      1.13128e+01
196.000      1.17391e+01
197.000      1.21258e+01
198.000      1.24211e+01
199.000      1.25938e+01
200.000      1.26372e+01
201.000      1.25665e+01
202.000      1.24099e+01
203.000      1.21979e+01
204.000      1.19544e+01
205.000      1.16916e+01
206.000      1.14105e+01
207.000      1.11045e+01
208.000      1.07659e+01
209.000      1.03910e+01
210.000      9.98390e+00
211.000      9.55713e+00
212.000      9.13003e+00
213.000      8.72512e+00
214.000      8.36362e+00
215.000      8.06144e+00
216.000      7.82666e+00
217.000      7.65955e+00
218.000      7.55508e+00
219.000      7.50695e+00
220.000      7.51152e+00
221.000      7.56989e+00
222.000      7.68694e+00
223.000      7.86772e+00
224.000      8.11239e+00
225.000      8.41187e+00
226.000      8.74599e+00
227.000      9.08504e+00
228.000      9.39459e+00
229.000      9.64227e+00
230.000      9.80454e+00
231.000      9.87171e+00
232.000      9.84971e+00
233.000      9.75825e+00
234.000      9.62601e+00
235.000      9.48410e+00
236.000      9.35984e+00
237.000      9.27235e+00
238.000      9.23105e+00
239.000      9.23687e+00
240.000      9.28549e+00
241.000      9.37076e+00
242.000      9.48723e+00
243.000      9.63073e+00
244.000      9.79743e+00
245.000      9.98199e+00
246.000      1.01761e+01
247.000      1.03684e+01
248.000      1.05448e+01
249.000      1.06905e+01
250.000      1.07919e+01
251.000      1.08373e+01
252.000      1.08192e+01
253.000      1.07354e+01
254.000      1.05910e+01
255.000      1.03998e+01
256.000      1.01857e+01
257.000      9.98091e+00
258.000      9.82251e+00
259.000      9.74579e+00
260.000      9.77648e+00
261.000      9.92317e+00
262.000      1.01720e+01
263.000      1.04856e+01
264.000      1.08065e+01
265.000      1.10665e+01
266.000      1.11986e+01
267.000      1.11511e+01
268.000      1.08994e+01
269.000      1.04534e+01
270.000      9.85753e+00
271.000      9.18330e+00
272.000      8.51615e+00
273.000      7.93877e+00
274.000      7.51544e+00
275.000      7.28093e+00
276.000      7.23681e+00
277.000      7.35567e+00
278.000      7.59174e+00
279.000      7.89454e+00
280.000      8.22113e+00
281.000      8.54354e+00
282.000      8.84962e+00
283.000      9.13813e+00
284.000      9.41093e+00
285.000      9.66581e+00
286.000      9.89270e+00
287.000      1.00743e+01
288.000      1.01899e+01
289.000      1.02212e+01
290.000      1.01566e+01
291.000      9.99449e+00
292.000      9.74407e+00
293.000      9.42398e+00
294.000      9.05948e+00
295.000      8.67783e+00
296.000      8.30254e+00
297.000      7.94792e+00
298.000      7.61586e+00
299.000      7.29674e+00
300.000      6.97499e+00
301.000      6.63756e+00
302.000      6.28227e+00
303.000      5.92241e+00
304.000      5.58553e+00
305.000      5.30665e+00
306.000      5.11849e+00
307.000      5.04221e+00
308.000      5.08183e+00
309.000      5.22360e+00
310.000      5.44006e+00
311.000      5.69702e+00
312.000      5.96120e+00
313.000      6.20692e+00
314.000      6.42059e+00
315.000      6.60241e+00
316.000      6.76540e+00
317.000      6.93206e+00
318.000      7.12933e+00
319.000      7.38310e+00
320.000      7.71307e+00
321.000      8.12901e+00
322.000      8.62866e+00
323.000      9.19740e+00
324.000      9.80958e+00
325.000      1.04317e+01
326.000      1.10272e+01
327.000      1.15630e+01
328.000      1.20154e+01
329.000      1.23759e+01
330.000      1.26527e+01
331.000      1.28688e+01
332.000      1.30571e+01
333.000      1.32532e+01
334.000      1.34882e+01
335.000      1.37844e+01
336.000      1.41524e+01
337.000      1.45923e+01
338.000      1.50948e+01
339.000      1.56449e+01
340.000      1.62243e+01
341.000      1.68136e+01
342.000      1.73949e+01
343.000      1.79532e+01
344.000      1.84778e+01
345.000      1.89631e+01
346.000      1.94084e+01
347.000      1.98160e+01
348.000      2.01884e+01
349.000      2.05249e+01
350.000      2.08182e+01
351.000      2.10523e+01
352.000      2.12031e+01
353.000      2.12420e+01
354.000      2.11401e+01
355.000      2.08752e+01
356.000      2.04360e+01
357.000      1.98256e+01
358.000      1.90610e+01
359.000      1.81704e+01
360.000      1.71883e+01
361.000      1.61502e+01
362.000      1.50881e+01
363.000      1.40273e+01
364.000      1.29866e+01
365.000      1.19800e+01
366.000      1.10204e+01
367.000      1.01227e+01
368.000      9.30562e+00
369.000      8.59024e+00
370.000      7.99689e+00
371.000      7.54082e+00
372.000      7.22895e+00
373.000      7.05893e+00
374.000      7.02081e+00
375.000      7.10034e+00
376.000      7.28237e+00
377.000      7.55327e+00
378.000      7.90154e+00
379.000      8.31655e+00
380.000      8.78583e+00
381.000      9.29109e+00
382.000      9.80398e+00
383.000      1.02829e+01
384.000      1.06727e+01
385.000      1.09100e+01
386.000      1.09331e+01
387.000      1.06970e+01
388.000      1.01868e+01
389.000      9.42704e+00
390.000      8.48119e+00
391.000      7.44045e+00
392.000      6.40558e+00
393.000      5.46662e+00
394.000      4.68685e+00
395.000      4.09511e+00
396.000      3.68751e+00
397.000      3.43606e+00
398.000      3.30040e+00
399.000      3.23870e+00
400.000      3.21524e+00
401.000      3.20408e+00
402.000      3.18940e+00
403.000      3.16387e+00
404.000      3.12589e+00
405.000      3.07657e+00
406.000      3.01680e+00
407.000      2.94504e+00
408.000      2.85632e+00
409.000      2.74300e+00
410.000      2.59724e+00
411.000      2.41458e+00
412.000      2.19730e+00
413.000      1.95612e+00
414.000      1.70943e+00
415.000      1.47986e+00
416.000      1.28902e+00
417.000      1.15204e+00
418.000      1.07345e+00
419.000      1.04581e+00
420.000      1.05143e+00
421.000      1.06692e+00
422.000      1.06898e+00
423.000      1.04005e+00
424.000      9.71935e-01
425.000      8.66679e-01
426.000      7.34634e-01
427.000      5.90676e-01
428.000      4.49966e-01
429.000      3.24547e-01
430.000      2.21558e-01
431.000      1.43127e-01
432.000      8.74845e-02
433.000      5.05932e-02
434.000      2.76814e-02
435.000      1.43289e-02
436.000      7.01715e-03
437.000      3.25109e-03
438.000      1.42501e-03
439.000      5.90913e-04
440.000      2.31818e-04
441.000      8.60380e-05
442.000      3.02100e-05
443.000      1.00353e-05
444.000      3.15372e-06
445.000      9.37642e-07
446.000      2.63735e-07
447.000      7.01804e-08
448.000      1.76678e-08
449.000      4.20790e-09
450.000      9.48127e-10
451.000      2.02109e-10
452.000      4.07588e-11
453.000      7.77635e-12
454.000      1.40361e-12
455.000      2.39683e-13
456.000      3.87207e-14
457.000      5.91790e-15
458.000      8.55677e-16
459.000      1.17049e-16
460.000      1.51477e-17
461.000      1.85456e-18
462.000      2.14810e-19
463.000      2.35388e-20
464.000      2.44023e-21
465.000      2.39330e-22
466.000      2.22065e-23
467.000      1.94930e-24
468.000      1.61882e-25
469.000      1.27184e-26
470.000      9.45336e-28
471.000      6.64748e-29
472.000      4.42227e-30
473.000      2.78325e-31
474.000      1.65720e-32
475.000      9.33504e-34
476.000      4.97479e-35
477.000      2.50814e-36
478.000      1.19631e-37
479.000      5.39830e-39
480.000      2.30455e-40
481.000      9.30750e-42
482.000      3.55629e-43
483.000      1.28552e-44
484.000      4.39622e-46
485.000      1.42232e-47
486.000      4.35342e-49
487.000      1.26062e-50
488.000      3.45345e-52
489.000      8.95037e-54
490.000      2.19455e-55
491.000      5.09060e-57
492.000      1.11714e-58
493.000      2.31936e-60
494.000      4.55557e-62
495.000      8.46518e-64
496.000      1.48815e-65
497.000      2.47500e-67
498.000      3.89423e-69
499.000      5.79675e-71
500.000      8.16331e-73
