# Gaussian folded, width=10 cm^-1
# [cm^-1] arbitrary
0.000      3.00000e+00
1.000      2.91796e+00
2.000      2.68508e+00
3.000      2.33749e+00
4.000      1.92514e+00
5.000      1.50000e+00
6.000      1.10570e+00
7.000      7.71085e-01
8.000      5.08727e-01
9.000      3.17529e-01
10.000      1.87500e-01
11.000      1.04746e-01
12.000      5.53593e-02
13.000      2.76807e-02
14.000      1.30973e-02
15.000      5.87332e-03
16.000      2.52527e-03
17.000      1.12844e-03
18.000      7.62685e-04
19.000      1.18220e-03
20.000      2.73466e-03
21.000      6.55186e-03
22.000      1.50535e-02
23.000      3.28061e-02
24.000      6.77164e-02
25.000      1.32368e-01
26.000      2.45030e-01
27.000      4.29553e-01
28.000      7.13155e-01
29.000      1.12133e+00
30.000      1.66984e+00
31.000      2.35514e+00
32.000      3.14609e+00
33.000      3.98058e+00
34.000      4.77034e+00
35.000      5.41487e+00
36.000      5.82195e+00
37.000      5.92923e+00
38.000      5.71981e+00
39.000      5.22666e+00
40.000      4.52412e+00
41.000      3.70963e+00
42.000      2.88187e+00
43.000      2.12212e+00
44.000      1.48361e+00
45.000      9.90178e-01
46.000      6.42492e-01
47.000      4.28261e-01
48.000      3.32732e-01
49.000      3.46703e-01
50.000      4.70510e-01
51.000      7.13430e-01
52.000      1.08871e+00
53.000      1.60514e+00
54.000      2.25699e+00
55.000      3.01515e+00
56.000      3.82284e+00
57.000      4.59878e+00
58.000      5.24876e+00
59.000      5.68379e+00
60.000      5.83984e+00
61.000      5.69325e+00
62.000      5.26666e+00
63.000      4.62329e+00
64.000      3.85176e+00
65.000      3.04651e+00
66.000      2.28991e+00
67.000      1.64084e+00
68.000      1.13171e+00
69.000      7.72918e-01
70.000      5.61572e-01
71.000      4.90982e-01
72.000      5.57658e-01
73.000      7.63889e-01
74.000      1.11527e+00
75.000      1.61391e+00
76.000      2.24933e+00
77.000      2.99020e+00
78.000      3.78019e+00
79.000      4.54109e+00
80.000      5.18386e+00
81.000      5.62612e+00
82.000      5.81168e+00
83.000      5.72662e+00
84.000      5.40729e+00
85.000      4.93769e+00
86.000      4.43727e+00
87.000      4.04223e+00
88.000      3.88456e+00
89.000      4.07241e+00
90.000      4.67413e+00
91.000      5.70752e+00
92.000      7.13532e+00
93.000      8.86817e+00
94.000      1.07754e+01
95.000      1.27024e+01
96.000      1.44920e+01
97.000      1.60043e+01
98.000      1.71316e+01
99.000      1.78064e+01
100.000      1.80017e+01
101.000      1.77274e+01
102.000      1.70253e+01
103.000      1.59638e+01
104.000      1.46326e+01
105.000      1.31359e+01
106.000      1.15817e+01
107.000      1.00698e+01
108.000      8.67892e+00
109.000      7.45816e+00
110.000      6.42518e+00
111.000      5.57265e+00
112.000      4.88145e+00
113.000      4.33684e+00
114.000      3.94244e+00
115.000      3.72769e+00
116.000      3.74613e+00
117.000      4.06477e+00
118.000      4.74676e+00
119.000      5.83167e+00
120.000      7.31822e+00
121.000      9.15394e+00
122.000      1.12348e+01
123.000      1.34158e+01
124.000      1.55306e+01
125.000      1.74161e+01
126.000      1.89369e+01
127.000      2.00029e+01
128.000      2.05796e+01
129.000      2.06865e+01
130.000      2.03874e+01
131.000      1.97747e+01
132.000      1.89508e+01
133.000      1.80105e+01
134.000      1.70282e+01
135.000      1.60501e+01
136.000      1.50953e+01
137.000      1.41621e+01
138.000      1.32393e+01
139.000      1.23186e+01
140.000      1.14051e+01
141.000      1.05226e+01
142.000      9.71384e+00
143.000      9.03351e+00
144.000      8.53690e+00
145.000      8.26601e+00
146.000      8.23662e+00
147.000      8.43027e+00
148.000      8.79405e+00
149.000      9.24959e+00
150.000      9.70927e+00
151.000      1.00955e+01
152.000      1.03573e+01
153.000      1.04793e+01
154.000      1.04810e+01
155.000      1.04061e+01
156.000      1.03072e+01
157.000      1.02306e+01
158.000      1.02049e+01
159.000      1.02375e+01
160.000      1.03179e+01
161.000      1.04265e+01
162.000      1.05438e+01
163.000      1.06587e+01
164.000      1.07712e+01
165.000      1.08905e+01
166.000      1.10291e+01
167.000      1.11951e+01
168.000      1.13866e+01
169.000      1.15893e+01
170.000      1.17799e+01
171.000      1.19333e+01
172.000      1.20318e+01
173.000      1.20727e+01
174.000      1.20720e+01
175.000      1.20615e+01
176.000      1.20823e+01
177.000      1.21740e+01
178.000      1.23649e+01
179.000      1.26648e+01
180.000      1.30625e+01
181.000      1.35280e+01
182.000      1.40189e+01
183.000      1.44889e+01
184.000      1.48965e+01
185.000      1.52120e+01
186.000      1.54224e+01
187.000      1.55340e+01
188.000      1.55716e+01
189.000      1.55754e+01
190.000      1.55957e+01
191.000      1.56840e+01
192.000      1.58826e+01
193.000      1.62152e+01
194.000      1.66789e+01
195.000      1.72433e+01
196.000      1.78555e+01
197.000      1.84496e+01
198.000      1.89606e+01
199.000      1.93348e+01
200.000      1.95380e+01
201.000      1.95565e+01
202.000      1.93936e+01
203.000      1.90630e+01
204.000      1.85819e+01
205.000      1.79663e+01
206.000      1.72291e+01
207.000      1.63816e+01
208.000      1.54369e+01
209.000      1.44118e+01
210.000      1.33282e+01
211.000      1.22117e+01
212.000      1.10898e+01
213.000      9.99011e+00
214.000      8.94057e+00
215.000      7.97046e+00
216.000      7.11166e+00
217.000      6.39772e+00
218.000      5.85997e+00
219.000      5.52079e+00
220.000      5.38625e+00
221.000      5.44117e+00
222.000      5.64911e+00
223.000      5.95863e+00
224.000      6.31429e+00
225.000      6.66947e+00
226.000      6.99642e+00
227.000      7.29036e+00
228.000      7.56599e+00
229.000      7.84811e+00
230.000      8.16014e+00
231.000      8.51470e+00
232.000      8.90948e+00
233.000      9.32888e+00
234.000      9.74932e+00
235.000      1.01453e+01
236.000      1.04934e+01
237.000      1.07742e+01
238.000      1.09714e+01
239.000      1.10722e+01
240.000      1.10683e+01
241.000      1.09590e+01
242.000      1.07539e+01
243.000      1.04748e+01
244.000      1.01533e+01
245.000      9.82594e+00
246.000      9.52540e+00
247.000      9.27289e+00
248.000      9.07244e+00
249.000      8.91065e+00
250.000      8.76195e+00
251.000      8.59830e+00
252.000      8.39988e+00
253.000      8.16317e+00
254.000      7.90319e+00
255.000      7.64911e+00
256.000      7.43449e+00
257.000      7.28591e+00
258.000      7.21370e+00
259.000      7.20821e+00
260.000      7.24265e+00
261.000      7.28148e+00
262.000      7.29149e+00
263.000      7.25241e+00
264.000      7.16428e+00
265.000      7.05029e+00
266.000      6.95498e+00
267.000      6.93906e+00
268.000      7.07179e+00
269.000      7.42233e+00
270.000      8.05080e+00
271.000      8.99943e+00
272.000      1.02846e+01
273.000      1.18904e+01
274.000      1.37650e+01
275.000      1.58217e+01
276.000      1.79446e+01
277.000      2.00007e+01
278.000      2.18554e+01
279.000      2.33895e+01
280.000      2.45137e+01
281.000      2.51786e+01
282.000      2.53775e+01
283.000      2.51426e+01
284.000      2.45364e+01
285.000      2.36394e+01
286.000      2.25382e+01
287.000      2.13142e+01
288.000      2.00355e+01
289.000      1.87530e+01
290.000      1.74996e+01
291.000      1.62925e+01
292.000      1.51387e+01
293.000      1.40399e+01
294.000      1.29970e+01
295.000      1.20132e+01
296.000      1.10941e+01
297.000      1.02456e+01
298.000      9.47128e+00
299.000      8.76951e+00
300.000      8.13222e+00
301.000      7.54625e+00
302.000      6.99678e+00
303.000      6.47186e+00
304.000      5.96631e+00
305.000      5.48334e+00
306.000      5.03327e+00
307.000      4.62967e+00
308.000      4.28437e+00
309.000      4.00311e+00
310.000      3.78326e+00
311.000      3.61461e+00
312.000      3.48256e+00
313.000      3.37288e+00
314.000      3.27624e+00
315.000      3.19083e+00
316.000      3.12239e+00
317.000      3.08140e+00
318.000      3.07875e+00
319.000      3.12136e+00
320.000      3.20970e+00
321.000      3.33821e+00
322.000      3.49866e+00
323.000      3.68528e+00
324.000      3.89976e+00
325.000      4.15385e+00
326.000      4.46801e+00
327.000      4.86604e+00
328.000      5.36681e+00
329.000      5.97589e+00
330.000      6.68013e+00
331.000      7.44772e+00
332.000      8.23431e+00
333.000      8.99375e+00
334.000      9.68963e+00
335.000      1.03037e+01
336.000      1.08377e+01
337.000      1.13087e+01
338.000      1.17393e+01
339.000      1.21481e+01
340.000      1.25439e+01
341.000      1.29255e+01
342.000      1.32860e+01
343.000      1.36187e+01
344.000      1.39210e+01
345.000      1.41938e+01
346.000      1.44359e+01
347.000      1.46367e+01
348.000      1.47714e+01
349.000      1.47997e+01
350.000      1.46724e+01
351.000      1.43436e+01
352.000      1.37850e+01
353.000      1.29996e+01
354.000      1.20279e+01
355.000      1.09454e+01
356.000      9.84972e+00
357.000      8.84211e+00
358.000      8.00625e+00
359.000      7.39216e+00
360.000      7.00842e+00
361.000      6.82460e+00
362.000      6.78220e+00
363.000      6.81017e+00
364.000      6.84049e+00
365.000      6.82000e+00
366.000      6.71685e+00
367.000      6.52129e+00
368.000      6.24222e+00
369.000      5.90117e+00
370.000      5.52557e+00
371.000      5.14283e+00
372.000      4.77650e+00
373.000      4.44503e+00
374.000      4.16261e+00
375.000      3.94092e+00
376.000      3.79004e+00
377.000      3.71729e+00
378.000      3.72420e+00
379.000      3.80280e+00
380.000      3.93354e+00
381.000      4.08665e+00
382.000      4.22735e+00
383.000      4.32350e+00
384.000      4.35331e+00
385.000      4.31003e+00
386.000      4.20198e+00
387.000      4.04805e+00
388.000      3.87029e+00
389.000      3.68661e+00
390.000      3.50602e+00
391.000      3.32774e+00
392.000      3.14393e+00
393.000      2.94468e+00
394.000      2.72311e+00
395.000      2.47919e+00
396.000      2.22108e+00
397.000      1.96391e+00
398.000      1.72639e+00
399.000      1.52605e+00
400.000      1.37450e+00
401.000      1.27392e+00
402.000      1.21603e+00
403.000      1.18401e+00
404.000      1.15685e+00
405.000      1.11492e+00
406.000      1.04489e+00
407.000      9.42616e-01
408.000      8.13044e-01
409.000      6.67699e-01
410.000      5.20738e-01
411.000      3.85090e-01
412.000      2.69779e-01
413.000      1.78945e-01
414.000      1.12346e-01
415.000      6.67477e-02
416.000      3.75238e-02
417.000      1.99590e-02
418.000      1.00442e-02
419.000      4.78215e-03
420.000      2.15407e-03
421.000      9.17950e-04
422.000      3.70083e-04
423.000      1.41156e-04
424.000      5.09353e-05
425.000      1.73882e-05
426.000      5.61579e-06
427.000      1.71587e-06
428.000      4.95993e-07
429.000      1.35639e-07
430.000      3.50921e-08
431.000      8.58922e-09
432.000      1.98891e-09
433.000      4.35707e-10
434.000      9.03007e-11
435.000      1.77054e-11
436.000      3.28426e-12
437.000      5.76351e-13
438.000      9.56872e-14
439.000      1.50293e-14
440.000      2.23327e-15
441.000      3.13950e-16
442.000      4.17540e-17
443.000      5.25356e-18
444.000      6.25355e-19
445.000      7.04233e-20
446.000      7.50282e-21
447.000      7.56223e-22
448.000      7.21096e-23
449.000      6.50510e-24
450.000      5.55178e-25
451.000      4.48258e-26
452.000      3.42406e-27
453.000      2.47442e-28
454.000      1.69169e-29
455.000      1.09418e-30
456.000      6.69533e-32
457.000      3.87591e-33
458.000      2.12272e-34
459.000      1.09984e-35
460.000      5.39118e-37
461.000      2.50009e-38
462.000      1.09684e-39
463.000      4.55252e-41
464.000      1.78763e-42
465.000      6.64078e-44
466.000      2.33388e-45
467.000      7.75991e-47
468.000      2.44091e-48
469.000      7.26381e-50
470.000      2.04501e-51
471.000      5.44682e-53
472.000      1.37249e-54
473.000      3.27184e-56
474.000      7.37891e-58
475.000      1.57438e-59
476.000      3.17795e-61
477.000      6.06876e-63
478.000      1.09641e-64
479.000      1.87396e-66
480.000      3.03016e-68
481.000      4.63543e-70
482.000      6.70860e-72
483.000      9.18525e-74
484.000      1.18978e-75
485.000      1.45801e-77
486.000      1.69034e-79
487.000      1.85397e-81
488.000      1.92376e-83
489.000      1.88849e-85
490.000      1.75387e-87
491.000      1.54098e-89
492.000      1.28090e-91
493.000      1.00728e-93
494.000      7.49381e-96
495.000      5.27440e-98
496.000     3.51205e-100
497.000     2.21242e-102
498.000     1.31853e-104
499.000     7.43414e-107
500.000     3.96542e-109
