# Gaussian folded, width=10 cm^-1
# [cm^-1] arbitrary
0.000      3.00000e+00
1.000      2.91796e+00
2.000      2.68508e+00
3.000      2.33749e+00
4.000      1.92514e+00
5.000      1.50000e+00
6.000      1.10570e+00
7.000      7.71085e-01
8.000      5.08727e-01
9.000      3.17529e-01
10.000      1.87500e-01
11.000      1.04746e-01
12.000      5.53594e-02
13.000      2.76808e-02
14.000      1.30977e-02
15.000      5.87432e-03
16.000      2.52812e-03
17.000      1.13615e-03
18.000      7.82300e-04
19.000      1.22908e-03
20.000      2.83988e-03
21.000      6.77341e-03
22.000      1.54905e-02
23.000      3.36125e-02
24.000      6.91048e-02
25.000      1.34592e-01
26.000      2.48332e-01
27.000      4.34067e-01
28.000      7.18789e-01
29.000      1.12765e+00
30.000      1.67601e+00
31.000      2.36005e+00
32.000      3.14852e+00
33.000      3.97957e+00
34.000      4.76554e+00
35.000      5.40673e+00
36.000      5.81168e+00
37.000      5.91850e+00
38.000      5.71032e+00
39.000      5.21969e+00
40.000      4.52026e+00
41.000      3.70876e+00
42.000      2.88331e+00
43.000      2.12498e+00
44.000      1.48707e+00
45.000      9.93697e-01
46.000      6.45931e-01
47.000      4.31852e-01
48.000      3.36989e-01
49.000      3.52270e-01
50.000      4.77917e-01
51.000      7.22774e-01
52.000      1.09930e+00
53.000      1.61522e+00
54.000      2.26373e+00
55.000      3.01507e+00
56.000      3.81267e+00
57.000      4.57664e+00
58.000      5.21524e+00
59.000      5.64234e+00
60.000      5.79634e+00
61.000      5.65467e+00
62.000      5.23917e+00
63.000      4.61068e+00
64.000      3.85457e+00
65.000      3.06216e+00
66.000      2.31368e+00
67.000      1.66721e+00
68.000      1.15555e+00
69.000      7.90139e-01
70.000      5.69339e-01
71.000      4.87589e-01
72.000      5.42489e-01
73.000      7.37655e-01
74.000      1.08053e+00
75.000      1.57561e+00
76.000      2.21487e+00
77.000      2.96858e+00
78.000      3.78017e+00
79.000      4.56861e+00
80.000      5.23968e+00
81.000      5.70454e+00
82.000      5.90120e+00
83.000      5.81260e+00
84.000      5.47568e+00
85.000      4.97885e+00
86.000      4.44854e+00
87.000      4.02873e+00
88.000      3.85829e+00
89.000      4.05008e+00
90.000      4.67428e+00
91.000      5.74712e+00
92.000      7.22591e+00
93.000      9.01177e+00
94.000      1.09608e+01
95.000      1.29034e+01
96.000      1.46683e+01
97.000      1.61071e+01
98.000      1.71126e+01
99.000      1.76286e+01
100.000      1.76493e+01
101.000      1.72117e+01
102.000      1.63846e+01
103.000      1.52572e+01
104.000      1.39294e+01
105.000      1.25027e+01
106.000      1.10716e+01
107.000      9.71543e+00
108.000      8.49037e+00
109.000      7.42628e+00
110.000      6.52799e+00
111.000      5.78272e+00
112.000      5.17209e+00
113.000      4.68560e+00
114.000      4.33199e+00
115.000      4.14485e+00
116.000      4.18052e+00
117.000      4.50776e+00
118.000      5.19094e+00
119.000      6.27021e+00
120.000      7.74334e+00
121.000      9.55408e+00
122.000      1.15912e+01
123.000      1.36995e+01
124.000      1.57025e+01
125.000      1.74303e+01
126.000      1.87491e+01
127.000      1.95822e+01
128.000      1.99210e+01
129.000      1.98198e+01
130.000      1.93799e+01
131.000      1.87247e+01
132.000      1.79727e+01
133.000      1.72160e+01
134.000      1.65068e+01
135.000      1.58560e+01
136.000      1.52414e+01
137.000      1.46231e+01
138.000      1.39611e+01
139.000      1.32311e+01
140.000      1.24346e+01
141.000      1.16025e+01
142.000      1.07897e+01
143.000      1.00652e+01
144.000      9.49593e+00
145.000      9.13139e+00
146.000      8.99056e+00
147.000      9.05572e+00
148.000      9.27479e+00
149.000      9.57198e+00
150.000      9.86393e+00
151.000      1.00772e+01
152.000      1.01628e+01
153.000      1.01036e+01
154.000      9.91420e+00
155.000      9.63396e+00
156.000      9.31536e+00
157.000      9.01247e+00
158.000      8.77215e+00
159.000      8.62948e+00
160.000      8.60701e+00
161.000      8.71569e+00
162.000      8.95551e+00
163.000      9.31521e+00
164.000      9.77176e+00
165.000      1.02916e+01
166.000      1.08347e+01
167.000      1.13617e+01
168.000      1.18410e+01
169.000      1.22543e+01
170.000      1.25982e+01
171.000      1.28810e+01
172.000      1.31175e+01
173.000      1.33232e+01
174.000      1.35101e+01
175.000      1.36846e+01
176.000      1.38482e+01
177.000      1.39984e+01
178.000      1.41314e+01
179.000      1.42434e+01
180.000      1.43331e+01
181.000      1.44033e+01
182.000      1.44613e+01
183.000      1.45184e+01
184.000      1.45879e+01
185.000      1.46819e+01
186.000      1.48080e+01
187.000      1.49680e+01
188.000      1.51580e+01
189.000      1.53717e+01
190.000      1.56027e+01
191.000      1.58480e+01
192.000      1.61081e+01
193.000      1.63858e+01
194.000      1.66822e+01
195.000      1.69937e+01
196.000      1.73085e+01
197.000      1.76059e+01
198.000      1.78572e+01
199.000      1.80303e+01
200.000      1.80941e+01
201.000      1.80252e+01
202.000      1.78132e+01
203.000      1.74626e+01
204.000      1.69925e+01
205.000      1.64307e+01
206.000      1.58056e+01
207.000      1.51373e+01
208.000      1.44316e+01
209.000      1.36797e+01
210.000      1.28634e+01
211.000      1.19667e+01
212.000      1.09867e+01
213.000      9.94274e+00
214.000      8.87753e+00
215.000      7.85047e+00
216.000      6.92463e+00
217.000      6.15192e+00
218.000      5.56135e+00
219.000      5.15453e+00
220.000      4.90929e+00
221.000      4.78981e+00
222.000      4.75933e+00
223.000      4.79121e+00
224.000      4.87541e+00
225.000      5.01923e+00
226.000      5.24324e+00
227.000      5.57377e+00
228.000      6.03428e+00
229.000      6.63700e+00
230.000      7.37647e+00
231.000      8.22618e+00
232.000      9.13937e+00
233.000      1.00541e+01
234.000      1.09021e+01
235.000      1.16199e+01
236.000      1.21593e+01
237.000      1.24949e+01
238.000      1.26272e+01
239.000      1.25796e+01
240.000      1.23908e+01
241.000      1.21046e+01
242.000      1.17600e+01
243.000      1.13841e+01
244.000      1.09905e+01
245.000      1.05822e+01
246.000      1.01580e+01
247.000      9.71914e+00
248.000      9.27329e+00
249.000      8.83397e+00
250.000      8.41634e+00
251.000      8.03185e+00
252.000      7.68542e+00
253.000      7.37701e+00
254.000      7.10734e+00
255.000      6.88451e+00
256.000      6.72745e+00
257.000      6.66307e+00
258.000      6.71739e+00
259.000      6.90386e+00
260.000      7.21411e+00
261.000      7.61556e+00
262.000      8.05798e+00
263.000      8.48703e+00
264.000      8.86045e+00
265.000      9.16140e+00
266.000      9.40485e+00
267.000      9.63515e+00
268.000      9.91598e+00
269.000      1.03155e+01
270.000      1.08907e+01
271.000      1.16740e+01
272.000      1.26650e+01
273.000      1.38297e+01
274.000      1.51056e+01
275.000      1.64141e+01
276.000      1.76764e+01
277.000      1.88292e+01
278.000      1.98363e+01
279.000      2.06919e+01
280.000      2.14138e+01
281.000      2.20290e+01
282.000      2.25547e+01
283.000      2.29843e+01
284.000      2.32810e+01
285.000      2.33852e+01
286.000      2.32315e+01
287.000      2.27714e+01
288.000      2.19923e+01
289.000      2.09270e+01
290.000      1.96495e+01
291.000      1.82594e+01
292.000      1.68590e+01
293.000      1.55315e+01
294.000      1.43263e+01
295.000      1.32541e+01
296.000      1.22929e+01
297.000      1.14013e+01
298.000      1.05344e+01
299.000      9.65837e+00
300.000      8.75947e+00
301.000      7.84654e+00
302.000      6.94723e+00
303.000      6.09963e+00
304.000      5.34244e+00
305.000      4.70602e+00
306.000      4.20682e+00
307.000      3.84583e+00
308.000      3.61100e+00
309.000      3.48220e+00
310.000      3.43698e+00
311.000      3.45542e+00
312.000      3.52276e+00
313.000      3.62971e+00
314.000      3.77085e+00
315.000      3.94238e+00
316.000      4.14037e+00
317.000      4.36021e+00
318.000      4.59711e+00
319.000      4.84673e+00
320.000      5.10492e+00
321.000      5.36605e+00
322.000      5.62044e+00
323.000      5.85228e+00
324.000      6.03982e+00
325.000      6.15904e+00
326.000      6.19034e+00
327.000      6.12653e+00
328.000      5.97929e+00
329.000      5.78117e+00
330.000      5.58197e+00
331.000      5.43998e+00
332.000      5.41071e+00
333.000      5.53666e+00
334.000      5.84120e+00
335.000      6.32759e+00
336.000      6.98256e+00
337.000      7.78178e+00
338.000      8.69488e+00
339.000      9.68824e+00
340.000      1.07259e+01
341.000      1.17694e+01
342.000      1.27787e+01
343.000      1.37140e+01
344.000      1.45383e+01
345.000      1.52199e+01
346.000      1.57334e+01
347.000      1.60582e+01
348.000      1.61778e+01
349.000      1.60788e+01
350.000      1.57518e+01
351.000      1.51954e+01
352.000      1.44199e+01
353.000      1.34515e+01
354.000      1.23331e+01
355.000      1.11213e+01
356.000      9.88116e+00
357.000      8.67725e+00
358.000      7.56649e+00
359.000      6.59194e+00
360.000      5.77990e+00
361.000      5.13989e+00
362.000      4.66696e+00
363.000      4.34496e+00
364.000      4.15002e+00
365.000      4.05345e+00
366.000      4.02426e+00
367.000      4.03141e+00
368.000      4.04626e+00
369.000      4.04514e+00
370.000      4.01207e+00
371.000      3.94089e+00
372.000      3.83660e+00
373.000      3.71544e+00
374.000      3.60353e+00
375.000      3.53368e+00
376.000      3.54055e+00
377.000      3.65390e+00
378.000      3.89120e+00
379.000      4.25065e+00
380.000      4.70705e+00
381.000      5.21235e+00
382.000      5.70195e+00
383.000      6.10616e+00
384.000      6.36436e+00
385.000      6.43784e+00
386.000      6.31768e+00
387.000      6.02516e+00
388.000      5.60465e+00
389.000      5.11176e+00
390.000      4.60042e+00
391.000      4.11290e+00
392.000      3.67492e+00
393.000      3.29624e+00
394.000      2.97487e+00
395.000      2.70262e+00
396.000      2.46967e+00
397.000      2.26693e+00
398.000      2.08629e+00
399.000      1.91988e+00
400.000      1.75944e+00
401.000      1.59689e+00
402.000      1.42588e+00
403.000      1.24375e+00
404.000      1.05266e+00
405.000      8.59369e-01
406.000      6.73418e-01
407.000      5.04589e-01
408.000      3.60475e-01
409.000      2.44995e-01
410.000      1.58160e-01
411.000      9.68730e-02
412.000      5.62490e-02
413.000      3.09442e-02
414.000      1.61219e-02
415.000      7.95231e-03
416.000      3.71295e-03
417.000      1.64069e-03
418.000      6.86075e-04
419.000      2.71468e-04
420.000      1.01635e-04
421.000      3.60021e-05
422.000      1.20659e-05
423.000      3.82591e-06
424.000      1.14774e-06
425.000      3.25745e-07
426.000      8.74660e-08
427.000      2.22190e-08
428.000      5.33988e-09
429.000      1.21411e-09
430.000      2.61160e-10
431.000      5.31464e-11
432.000      1.02320e-11
433.000      1.86364e-12
434.000      3.21133e-13
435.000      5.23509e-14
436.000      8.07387e-15
437.000      1.17803e-15
438.000      1.62611e-16
439.000      2.12355e-17
440.000      2.62356e-18
441.000      3.06646e-19
442.000      3.39079e-20
443.000      3.54718e-21
444.000      3.51061e-22
445.000      3.28699e-23
446.000      2.91161e-24
447.000      2.43998e-25
448.000      1.93444e-26
449.000      1.45092e-27
450.000      1.02955e-28
451.000      6.91146e-30
452.000      4.38945e-31
453.000      2.63735e-32
454.000      1.49914e-33
455.000      8.06188e-35
456.000      4.10154e-36
457.000      1.97413e-37
458.000      8.98919e-39
459.000      3.87243e-40
460.000      1.57821e-41
461.000      6.08504e-43
462.000      2.21962e-44
463.000      7.65973e-46
464.000      2.50072e-47
465.000      7.72384e-49
466.000      2.25694e-50
467.000      6.23913e-52
468.000      1.63172e-53
469.000      4.03725e-55
470.000      9.45022e-57
471.000      2.09275e-58
472.000      4.38439e-60
473.000      8.68998e-62
474.000      1.62947e-63
475.000      2.89062e-65
476.000      4.85125e-67
477.000      7.70253e-69
478.000      1.15699e-70
479.000      1.64417e-72
480.000      2.21044e-74
481.000      2.81145e-76
482.000      3.38297e-78
483.000      3.85109e-80
484.000      4.14751e-82
485.000      4.22579e-84
486.000      4.07330e-86
487.000      3.71452e-88
488.000      3.20462e-90
489.000      2.61558e-92
490.000      2.01965e-94
491.000      1.47538e-96
492.000      1.01964e-98
493.000     6.66668e-101
494.000     4.12372e-103
495.000     2.41316e-105
496.000     1.33598e-107
497.000     6.99733e-110
498.000     3.46723e-112
499.000     1.62536e-114
500.000     7.20833e-117
