# Gaussian folded, width=10 cm^-1
# [cm^-1] arbitrary
0.000      3.00000e+00
1.000      2.91796e+00
2.000      2.68508e+00
3.000      2.33749e+00
4.000      1.92514e+00
5.000      1.50000e+00
6.000      1.10570e+00
7.000      7.71085e-01
8.000      5.08727e-01
9.000      3.17529e-01
10.000      1.87500e-01
11.000      1.04746e-01
12.000      5.53590e-02
13.000      2.76795e-02
14.000      1.30932e-02
15.000      5.85940e-03
16.000      2.48079e-03
17.000      9.93956e-04
18.000      3.77801e-04
19.000      1.39523e-04
20.000      6.09232e-05
21.000      6.24651e-05
22.000      1.47245e-04
23.000      4.05606e-04
24.000      1.08522e-03
25.000      2.75842e-03
26.000      6.64592e-03
27.000      1.51747e-02
28.000      3.28369e-02
29.000      6.73440e-02
30.000      1.30902e-01
31.000      2.41170e-01
32.000      4.21157e-01
33.000      6.97145e-01
34.000      1.09389e+00
35.000      1.62710e+00
36.000      2.29432e+00
37.000      3.06693e+00
38.000      3.88666e+00
39.000      4.66963e+00
40.000      5.31900e+00
41.000      5.74416e+00
42.000      5.88139e+00
43.000      5.70946e+00
44.000      5.25505e+00
45.000      4.58594e+00
46.000      3.79448e+00
47.000      2.97680e+00
48.000      2.21421e+00
49.000      1.56159e+00
50.000      1.04427e+00
51.000      6.62320e-01
52.000      3.98863e-01
53.000      2.29232e-01
54.000      1.28479e-01
55.000      7.63166e-02
56.000      5.96576e-02
57.000      7.35400e-02
58.000      1.21182e-01
59.000      2.13520e-01
60.000      3.68035e-01
61.000      6.06298e-01
62.000      9.49657e-01
63.000      1.41296e+00
64.000      1.99716e+00
65.000      2.68263e+00
66.000      3.42576e+00
67.000      4.16107e+00
68.000      4.80969e+00
69.000      5.29317e+00
70.000      5.54915e+00
71.000      5.54462e+00
72.000      5.28280e+00
73.000      4.80173e+00
74.000      4.16530e+00
75.000      3.44952e+00
76.000      2.72828e+00
77.000      2.06204e+00
78.000      1.49168e+00
79.000      1.03800e+00
80.000      7.05652e-01
81.000      4.89624e-01
82.000      3.82201e-01
83.000      3.78591e-01
84.000      4.79965e-01
85.000      6.93244e-01
86.000      1.02754e+00
87.000      1.48796e+00
88.000      2.06814e+00
89.000      2.74381e+00
90.000      3.46968e+00
91.000      4.18167e+00
92.000      4.80498e+00
93.000      5.26684e+00
94.000      5.51101e+00
95.000      5.51025e+00
96.000      5.27351e+00
97.000      4.84606e+00
98.000      4.30268e+00
99.000      3.73605e+00
100.000      3.24301e+00
101.000      2.91152e+00
102.000      2.81017e+00
103.000      2.98105e+00
104.000      3.43619e+00
105.000      4.15743e+00
106.000      5.09945e+00
107.000      6.19596e+00
108.000      7.36837e+00
109.000      8.53574e+00
110.000      9.62448e+00
111.000      1.05759e+01
112.000      1.13507e+01
113.000      1.19302e+01
114.000      1.23142e+01
115.000      1.25177e+01
116.000      1.25659e+01
117.000      1.24884e+01
118.000      1.23139e+01
119.000      1.20640e+01
120.000      1.17498e+01
121.000      1.13702e+01
122.000      1.09150e+01
123.000      1.03708e+01
124.000      9.72992e+00
125.000      8.99798e+00
126.000      8.19956e+00
127.000      7.37815e+00
128.000      6.59040e+00
129.000      5.89598e+00
130.000      5.34575e+00
131.000      4.97239e+00
132.000      4.78626e+00
133.000      4.77799e+00
134.000      4.92618e+00
135.000      5.20674e+00
136.000      5.60011e+00
137.000      6.09365e+00
138.000      6.67936e+00
139.000      7.34873e+00
140.000      8.08802e+00
141.000      8.87582e+00
142.000      9.68371e+00
143.000      1.04789e+01
144.000      1.12273e+01
145.000      1.18968e+01
146.000      1.24593e+01
147.000      1.28930e+01
148.000      1.31847e+01
149.000      1.33322e+01
150.000      1.33449e+01
151.000      1.32437e+01
152.000      1.30591e+01
153.000      1.28274e+01
154.000      1.25870e+01
155.000      1.23735e+01
156.000      1.22155e+01
157.000      1.21307e+01
158.000      1.21223e+01
159.000      1.21778e+01
160.000      1.22699e+01
161.000      1.23594e+01
162.000      1.24001e+01
163.000      1.23448e+01
164.000      1.21511e+01
165.000      1.17871e+01
166.000      1.12376e+01
167.000      1.05090e+01
168.000      9.63240e+00
169.000      8.66380e+00
170.000      7.67954e+00
171.000      6.76650e+00
172.000      6.00889e+00
173.000      5.47430e+00
174.000      5.20249e+00
175.000      5.19951e+00
176.000      5.43829e+00
177.000      5.86523e+00
178.000      6.41071e+00
179.000      7.00138e+00
180.000      7.57155e+00
181.000      8.07186e+00
182.000      8.47376e+00
183.000      8.76960e+00
184.000      8.96882e+00
185.000      9.09199e+00
186.000      9.16466e+00
187.000      9.21242e+00
188.000      9.25790e+00
189.000      9.31922e+00
190.000      9.40876e+00
191.000      9.53193e+00
192.000      9.68576e+00
193.000      9.85853e+00
194.000      1.00310e+01
195.000      1.01797e+01
196.000      1.02817e+01
197.000      1.03190e+01
198.000      1.02816e+01
199.000      1.01688e+01
200.000      9.98752e+00
201.000      9.75054e+00
202.000      9.47396e+00
203.000      9.17555e+00
204.000      8.87364e+00
205.000      8.58597e+00
206.000      8.32819e+00
207.000      8.11143e+00
208.000      7.93973e+00
209.000      7.80793e+00
210.000      7.70143e+00
211.000      7.59845e+00
212.000      7.47509e+00
213.000      7.31203e+00
214.000      7.10100e+00
215.000      6.84878e+00
216.000      6.57699e+00
217.000      6.31731e+00
218.000      6.10355e+00
219.000      5.96304e+00
220.000      5.91048e+00
221.000      5.94585e+00
222.000      6.05664e+00
223.000      6.22292e+00
224.000      6.42267e+00
225.000      6.63560e+00
226.000      6.84466e+00
227.000      7.03596e+00
228.000      7.19856e+00
229.000      7.32491e+00
230.000      7.41213e+00
231.000      7.46271e+00
232.000      7.48374e+00
233.000      7.48404e+00
234.000      7.47030e+00
235.000      7.44407e+00
236.000      7.40151e+00
237.000      7.33604e+00
238.000      7.24299e+00
239.000      7.12375e+00
240.000      6.98755e+00
241.000      6.85009e+00
242.000      6.72969e+00
243.000      6.64289e+00
244.000      6.60093e+00
245.000      6.60798e+00
246.000      6.66093e+00
247.000      6.75023e+00
248.000      6.86134e+00
249.000      6.97669e+00
250.000      7.07826e+00
251.000      7.15043e+00
252.000      7.18275e+00
253.000      7.17154e+00
254.000      7.12010e+00
255.000      7.03755e+00
256.000      6.93692e+00
257.000      6.83357e+00
258.000      6.74421e+00
259.000      6.68654e+00
260.000      6.67843e+00
261.000      6.73611e+00
262.000      6.87087e+00
263.000      7.08524e+00
264.000      7.37006e+00
265.000      7.70406e+00
266.000      8.05673e+00
267.000      8.39350e+00
268.000      8.68160e+00
269.000      8.89430e+00
270.000      9.01215e+00
271.000      9.02155e+00
272.000      8.91216e+00
273.000      8.67552e+00
274.000      8.30641e+00
275.000      7.80715e+00
276.000      7.19325e+00
277.000      6.49775e+00
278.000      5.77146e+00
279.000      5.07776e+00
280.000      4.48240e+00
281.000      4.04103e+00
282.000      3.78799e+00
283.000      3.73004e+00
284.000      3.84678e+00
285.000      4.09790e+00
286.000      4.43445e+00
287.000      4.81080e+00
288.000      5.19364e+00
289.000      5.56556e+00
290.000      5.92324e+00
291.000      6.27168e+00
292.000      6.61739e+00
293.000      6.96321e+00
294.000      7.30614e+00
295.000      7.63835e+00
296.000      7.94991e+00
297.000      8.23173e+00
298.000      8.47764e+00
299.000      8.68504e+00
300.000      8.85490e+00
301.000      8.99141e+00
302.000      9.10178e+00
303.000      9.19592e+00
304.000      9.28565e+00
305.000      9.38309e+00
306.000      9.49807e+00
307.000      9.63483e+00
308.000      9.78901e+00
309.000      9.94573e+00
310.000      1.00801e+01
311.000      1.01612e+01
312.000      1.01591e+01
313.000      1.00548e+01
314.000      9.84872e+00
315.000      9.56641e+00
316.000      9.25780e+00
317.000      8.98976e+00
318.000      8.83374e+00
319.000      8.85164e+00
320.000      9.08427e+00
321.000      9.54499e+00
322.000      1.02198e+01
323.000      1.10725e+01
324.000      1.20528e+01
325.000      1.31047e+01
326.000      1.41734e+01
327.000      1.52100e+01
328.000      1.61738e+01
329.000      1.70330e+01
330.000      1.77642e+01
331.000      1.83512e+01
332.000      1.87842e+01
333.000      1.90587e+01
334.000      1.91752e+01
335.000      1.91395e+01
336.000      1.89629e+01
337.000      1.86641e+01
338.000      1.82694e+01
339.000      1.78144e+01
340.000      1.73436e+01
341.000      1.69092e+01
342.000      1.65665e+01
343.000      1.63691e+01
344.000      1.63613e+01
345.000      1.65723e+01
346.000      1.70119e+01
347.000      1.76698e+01
348.000      1.85179e+01
349.000      1.95162e+01
350.000      2.06180e+01
351.000      2.17746e+01
352.000      2.29383e+01
353.000      2.40617e+01
354.000      2.50976e+01
355.000      2.59982e+01
356.000      2.67153e+01
357.000      2.72037e+01
358.000      2.74237e+01
359.000      2.73462e+01
360.000      2.69559e+01
361.000      2.62546e+01
362.000      2.52622e+01
363.000      2.40159e+01
364.000      2.25664e+01
365.000      2.09721e+01
366.000      1.92920e+01
367.000      1.75810e+01
368.000      1.58860e+01
369.000      1.42477e+01
370.000      1.27025e+01
371.000      1.12867e+01
372.000      1.00375e+01
373.000      8.99186e+00
374.000      8.18262e+00
375.000      7.63437e+00
376.000      7.36061e+00
377.000      7.36396e+00
378.000      7.63932e+00
379.000      8.17825e+00
380.000      8.97253e+00
381.000      1.00145e+01
382.000      1.12933e+01
383.000      1.27876e+01
384.000      1.44570e+01
385.000      1.62339e+01
386.000      1.80198e+01
387.000      1.96870e+01
388.000      2.10864e+01
389.000      2.20625e+01
390.000      2.24741e+01
391.000      2.22185e+01
392.000      2.12544e+01
393.000      1.96185e+01
394.000      1.74273e+01
395.000      1.48635e+01
396.000      1.21467e+01
397.000      9.49586e+00
398.000      7.09482e+00
399.000      5.06796e+00
400.000      3.47256e+00
401.000      2.30616e+00
402.000      1.52383e+00
403.000      1.05826e+00
404.000      8.37096e-01
405.000      7.94244e-01
406.000      8.75325e-01
407.000      1.03890e+00
408.000      1.25562e+00
409.000      1.50658e+00
410.000      1.78130e+00
411.000      2.07488e+00
412.000      2.38422e+00
413.000      2.70370e+00
414.000      3.02167e+00
415.000      3.31917e+00
416.000      3.57169e+00
417.000      3.75382e+00
418.000      3.84525e+00
419.000      3.83581e+00
420.000      3.72786e+00
421.000      3.53508e+00
422.000      3.27840e+00
423.000      2.98073e+00
424.000      2.66251e+00
425.000      2.33949e+00
426.000      2.02309e+00
427.000      1.72244e+00
428.000      1.44675e+00
429.000      1.20654e+00
430.000      1.01308e+00
431.000      8.76137e-01
432.000      8.00851e-01
433.000      7.85034e-01
434.000      8.17877e-01
435.000      8.80808e-01
436.000      9.50508e-01
437.000      1.00344e+00
438.000      1.02068e+00
439.000      9.91755e-01
440.000      9.16257e-01
441.000      8.02918e-01
442.000      6.66530e-01
443.000      5.23820e-01
444.000      3.89595e-01
445.000      2.74182e-01
446.000      1.82568e-01
447.000      1.15013e-01
448.000      6.85483e-02
449.000      3.86518e-02
450.000      2.06188e-02
451.000      1.04058e-02
452.000      4.96831e-03
453.000      2.24418e-03
454.000      9.59014e-04
455.000      3.87712e-04
456.000      1.48290e-04
457.000      5.36577e-05
458.000      1.83683e-05
459.000      5.94874e-06
460.000      1.82263e-06
461.000      5.28309e-07
462.000      1.44876e-07
463.000      3.75856e-08
464.000      9.22497e-09
465.000      2.14203e-09
466.000      4.70549e-10
467.000      9.77914e-11
468.000      1.92271e-11
469.000      3.57639e-12
470.000      6.29353e-13
471.000      1.04776e-13
472.000      1.65023e-14
473.000      2.45893e-15
474.000      3.46630e-16
475.000      4.62277e-17
476.000      5.83253e-18
477.000      6.96192e-19
478.000      7.86174e-20
479.000      8.39897e-21
480.000      8.48889e-22
481.000      8.11696e-23
482.000      7.34266e-24
483.000      6.28393e-25
484.000      5.08776e-26
485.000      3.89708e-27
486.000      2.82403e-28
487.000      1.93606e-29
488.000      1.25569e-30
489.000      7.70490e-32
490.000      4.47268e-33
491.000      2.45633e-34
492.000      1.27621e-35
493.000      6.27301e-37
494.000      2.91707e-38
495.000      1.28332e-39
496.000      5.34125e-41
497.000      2.10313e-42
498.000      7.83445e-44
499.000      2.76101e-45
500.000      9.20544e-47
