# Gaussian folded, width=10 cm^-1
# [cm^-1] arbitrary
0.000      3.00000e+00
1.000      2.91796e+00
2.000      2.68508e+00
3.000      2.33749e+00
4.000      1.92514e+00
5.000      1.50000e+00
6.000      1.10570e+00
7.000      7.71085e-01
8.000      5.08727e-01
9.000      3.17529e-01
10.000      1.87500e-01
11.000      1.04746e-01
12.000      5.53594e-02
13.000      2.76807e-02
14.000      1.30976e-02
15.000      5.87408e-03
16.000      2.52757e-03
17.000      1.13501e-03
18.000      7.80381e-04
19.000      1.22713e-03
20.000      2.84208e-03
21.000      6.79354e-03
22.000      1.55647e-02
23.000      3.38215e-02
24.000      6.96081e-02
25.000      1.35667e-01
26.000      2.50406e-01
27.000      4.37710e-01
28.000      7.24636e-01
29.000      1.13622e+00
30.000      1.68748e+00
31.000      2.37391e+00
32.000      3.16347e+00
33.000      3.99353e+00
34.000      4.77604e+00
35.000      5.41149e+00
36.000      5.80935e+00
37.000      5.90910e+00
38.000      5.69536e+00
39.000      5.20175e+00
40.000      4.50228e+00
41.000      3.69326e+00
42.000      2.87187e+00
43.000      2.11805e+00
44.000      1.48420e+00
45.000      9.93945e-01
46.000      6.48325e-01
47.000      4.35700e-01
48.000      3.42003e-01
49.000      3.58486e-01
50.000      4.85493e-01
51.000      7.31721e-01
52.000      1.10922e+00
53.000      1.62514e+00
54.000      2.27211e+00
55.000      3.01997e+00
56.000      3.81222e+00
57.000      4.56953e+00
58.000      5.20121e+00
59.000      5.62250e+00
60.000      5.77309e+00
61.000      5.63126e+00
62.000      5.21899e+00
63.000      4.59647e+00
64.000      3.84786e+00
65.000      3.06313e+00
66.000      2.32143e+00
67.000      1.68040e+00
68.000      1.17312e+00
69.000      8.11931e-01
70.000      5.96271e-01
71.000      5.21396e-01
72.000      5.84891e-01
73.000      7.89138e-01
74.000      1.13903e+00
75.000      1.63558e+00
76.000      2.26733e+00
77.000      3.00247e+00
78.000      3.78501e+00
79.000      4.53779e+00
80.000      5.17332e+00
81.000      5.61074e+00
82.000      5.79502e+00
83.000      5.71284e+00
84.000      5.40069e+00
85.000      4.94256e+00
86.000      4.45798e+00
87.000      4.08337e+00
88.000      3.95075e+00
89.000      4.16755e+00
90.000      4.79990e+00
91.000      5.86144e+00
92.000      7.30875e+00
93.000      9.04499e+00
94.000      1.09320e+01
95.000      1.28094e+01
96.000      1.45182e+01
97.000      1.59221e+01
98.000      1.69233e+01
99.000      1.74691e+01
100.000      1.75499e+01
101.000      1.71917e+01
102.000      1.64467e+01
103.000      1.53852e+01
104.000      1.40905e+01
105.000      1.26541e+01
106.000      1.11706e+01
107.000      9.73022e+00
108.000      8.40890e+00
109.000      7.25978e+00
110.000      6.30771e+00
111.000      5.55061e+00
112.000      4.96832e+00
113.000      4.53696e+00
114.000      4.24475e+00
115.000      4.10396e+00
116.000      4.15485e+00
117.000      4.45947e+00
118.000      5.08623e+00
119.000      6.08917e+00
120.000      7.48704e+00
121.000      9.24807e+00
122.000      1.12846e+01
123.000      1.34595e+01
124.000      1.56041e+01
125.000      1.75426e+01
126.000      1.91196e+01
127.000      2.02230e+01
128.000      2.07994e+01
129.000      2.08588e+01
130.000      2.04682e+01
131.000      1.97360e+01
132.000      1.87905e+01
133.000      1.77565e+01
134.000      1.67334e+01
135.000      1.57819e+01
136.000      1.49188e+01
137.000      1.41241e+01
138.000      1.33566e+01
139.000      1.25741e+01
140.000      1.17532e+01
141.000      1.09011e+01
142.000      1.00591e+01
143.000      9.29378e+00
144.000      8.68102e+00
145.000      8.28591e+00
146.000      8.14460e+00
147.000      8.25303e+00
148.000      8.56577e+00
149.000      9.00511e+00
150.000      9.47812e+00
151.000      9.89651e+00
152.000      1.01939e+01
153.000      1.03364e+01
154.000      1.03236e+01
155.000      1.01829e+01
156.000      9.95815e+00
157.000      9.69851e+00
158.000      9.44937e+00
159.000      9.24796e+00
160.000      9.12269e+00
161.000      9.09468e+00
162.000      9.17952e+00
163.000      9.38752e+00
164.000      9.72220e+00
165.000      1.01778e+01
166.000      1.07375e+01
167.000      1.13732e+01
168.000      1.20487e+01
169.000      1.27241e+01
170.000      1.33615e+01
171.000      1.39294e+01
172.000      1.44055e+01
173.000      1.47766e+01
174.000      1.50373e+01
175.000      1.51891e+01
176.000      1.52383e+01
177.000      1.51973e+01
178.000      1.50837e+01
179.000      1.49208e+01
180.000      1.47354e+01
181.000      1.45546e+01
182.000      1.44013e+01
183.000      1.42916e+01
184.000      1.42338e+01
185.000      1.42302e+01
186.000      1.42805e+01
187.000      1.43844e+01
188.000      1.45428e+01
189.000      1.47563e+01
190.000      1.50230e+01
191.000      1.53365e+01
192.000      1.56862e+01
193.000      1.60584e+01
194.000      1.64390e+01
195.000      1.68133e+01
196.000      1.71652e+01
197.000      1.74739e+01
198.000      1.77119e+01
199.000      1.78455e+01
200.000      1.78393e+01
201.000      1.76636e+01
202.000      1.73035e+01
203.000      1.67657e+01
204.000      1.60803e+01
205.000      1.52966e+01
206.000      1.44727e+01
207.000      1.36618e+01
208.000      1.28996e+01
209.000      1.21952e+01
210.000      1.15306e+01
211.000      1.08670e+01
212.000      1.01585e+01
213.000      9.36780e+00
214.000      8.48006e+00
215.000      7.51082e+00
216.000      6.50506e+00
217.000      5.52838e+00
218.000      4.65280e+00
219.000      3.94161e+00
220.000      3.43772e+00
221.000      3.15857e+00
222.000      3.09862e+00
223.000      3.23776e+00
224.000      3.55218e+00
225.000      4.02350e+00
226.000      4.64266e+00
227.000      5.40744e+00
228.000      6.31479e+00
229.000      7.35146e+00
230.000      8.48691e+00
231.000      9.67150e+00
232.000      1.08409e+01
233.000      1.19255e+01
234.000      1.28611e+01
235.000      1.35982e+01
236.000      1.41082e+01
237.000      1.43834e+01
238.000      1.44347e+01
239.000      1.42874e+01
240.000      1.39758e+01
241.000      1.35409e+01
242.000      1.30268e+01
243.000      1.24789e+01
244.000      1.19403e+01
245.000      1.14477e+01
246.000      1.10265e+01
247.000      1.06880e+01
248.000      1.04283e+01
249.000      1.02297e+01
250.000      1.00650e+01
251.000      9.90220e+00
252.000      9.71035e+00
253.000      9.46418e+00
254.000      9.14803e+00
255.000      8.75834e+00
256.000      8.30477e+00
257.000      7.80937e+00
258.000      7.30392e+00
259.000      6.82527e+00
260.000      6.40947e+00
261.000      6.08579e+00
262.000      5.87242e+00
263.000      5.77549e+00
264.000      5.79211e+00
265.000      5.91704e+00
266.000      6.15076e+00
267.000      6.50588e+00
268.000      7.00914e+00
269.000      7.69733e+00
270.000      8.60781e+00
271.000      9.76617e+00
272.000      1.11746e+01
273.000      1.28046e+01
274.000      1.45965e+01
275.000      1.64653e+01
276.000      1.83128e+01
277.000      2.00410e+01
278.000      2.15655e+01
279.000      2.28246e+01
280.000      2.37832e+01
281.000      2.44306e+01
282.000      2.47757e+01
283.000      2.48384e+01
284.000      2.46436e+01
285.000      2.42155e+01
286.000      2.35758e+01
287.000      2.27439e+01
288.000      2.17382e+01
289.000      2.05788e+01
290.000      1.92894e+01
291.000      1.78988e+01
292.000      1.64414e+01
293.000      1.49565e+01
294.000      1.34858e+01
295.000      1.20700e+01
296.000      1.07454e+01
297.000      9.53991e+00
298.000      8.47203e+00
299.000      7.55025e+00
300.000      6.77448e+00
301.000      6.13768e+00
302.000      5.62758e+00
303.000      5.22802e+00
304.000      4.92025e+00
305.000      4.68441e+00
306.000      4.50134e+00
307.000      4.35445e+00
308.000      4.23121e+00
309.000      4.12428e+00
310.000      4.03212e+00
311.000      3.95952e+00
312.000      3.91775e+00
313.000      3.92384e+00
314.000      3.99824e+00
315.000      4.16012e+00
316.000      4.42103e+00
317.000      4.77861e+00
318.000      5.21265e+00
319.000      5.68568e+00
320.000      6.14868e+00
321.000      6.55070e+00
322.000      6.84964e+00
323.000      7.02133e+00
324.000      7.06441e+00
325.000      6.99992e+00
326.000      6.86594e+00
327.000      6.70874e+00
328.000      6.57222e+00
329.000      6.48832e+00
330.000      6.47069e+00
331.000      6.51347e+00
332.000      6.59596e+00
333.000      6.69234e+00
334.000      6.78365e+00
335.000      6.86849e+00
336.000      6.96864e+00
337.000      7.12717e+00
338.000      7.39913e+00
339.000      7.83720e+00
340.000      8.47645e+00
341.000      9.32298e+00
342.000      1.03493e+01
343.000      1.14979e+01
344.000      1.26899e+01
345.000      1.38377e+01
346.000      1.48550e+01
347.000      1.56646e+01
348.000      1.62018e+01
349.000      1.64173e+01
350.000      1.62795e+01
351.000      1.57798e+01
352.000      1.49388e+01
353.000      1.38107e+01
354.000      1.24818e+01
355.000      1.10616e+01
356.000      9.66622e+00
357.000      8.39871e+00
358.000      7.33145e+00
359.000      6.49640e+00
360.000      5.88575e+00
361.000      5.46199e+00
362.000      5.17332e+00
363.000      4.96899e+00
364.000      4.80994e+00
365.000      4.67271e+00
366.000      4.54725e+00
367.000      4.43142e+00
368.000      4.32552e+00
369.000      4.22901e+00
370.000      4.14001e+00
371.000      4.05684e+00
372.000      3.98005e+00
373.000      3.91406e+00
374.000      3.86796e+00
375.000      3.85557e+00
376.000      3.89464e+00
377.000      4.00474e+00
378.000      4.20330e+00
379.000      4.49962e+00
380.000      4.88831e+00
381.000      5.34444e+00
382.000      5.82319e+00
383.000      6.26544e+00
384.000      6.60848e+00
385.000      6.79891e+00
386.000      6.80330e+00
387.000      6.61342e+00
388.000      6.24490e+00
389.000      5.73074e+00
390.000      5.11300e+00
391.000      4.43548e+00
392.000      3.73927e+00
393.000      3.06084e+00
394.000      2.43151e+00
395.000      1.87713e+00
396.000      1.41722e+00
397.000      1.06389e+00
398.000      8.20940e-01
399.000      6.83586e-01
400.000      6.38989e-01
401.000      6.67374e-01
402.000      7.43782e-01
403.000      8.40513e-01
404.000      9.30314e-01
405.000      9.90028e-01
406.000      1.00402e+00
407.000      9.66401e-01
408.000      8.81273e-01
409.000      7.60773e-01
410.000      6.21495e-01
411.000      4.80387e-01
412.000      3.51306e-01
413.000      2.43057e-01
414.000      1.59094e-01
415.000      9.85185e-02
416.000      5.77166e-02
417.000      3.19891e-02
418.000      1.67734e-02
419.000      8.32064e-03
420.000      3.90491e-03
421.000      1.73373e-03
422.000      7.28235e-04
423.000      2.89387e-04
424.000      1.08794e-04
425.000      3.86941e-05
426.000      1.30198e-05
427.000      4.14459e-06
428.000      1.24818e-06
429.000      3.55623e-07
430.000      9.58560e-08
431.000      2.44437e-08
432.000      5.89702e-09
433.000      1.34591e-09
434.000      2.90614e-10
435.000      5.93655e-11
436.000      1.14728e-11
437.000      2.09760e-12
438.000      3.62822e-13
439.000      5.93721e-14
440.000      9.19154e-15
441.000      1.34621e-15
442.000      1.86532e-16
443.000      2.44519e-17
444.000      3.03242e-18
445.000      3.55781e-19
446.000      3.94907e-20
447.000      4.14690e-21
448.000      4.11975e-22
449.000      3.87200e-23
450.000      3.44284e-24
451.000      2.89612e-25
452.000      2.30480e-26
453.000      1.73528e-27
454.000      1.23601e-28
455.000      8.32898e-30
456.000      5.30981e-31
457.000      3.20247e-32
458.000      1.82729e-33
459.000      9.86389e-35
460.000      5.03740e-36
461.000      2.43378e-37
462.000      1.11244e-38
463.000      4.81045e-40
464.000      1.96795e-41
465.000      7.61659e-43
466.000      2.78884e-44
467.000      9.66063e-46
468.000      3.16595e-47
469.000      9.81569e-49
470.000      2.87909e-50
471.000      7.98926e-52
472.000      2.09737e-53
473.000      5.20910e-55
474.000      1.22396e-56
475.000      2.72076e-58
476.000      5.72175e-60
477.000      1.13838e-61
478.000      2.14270e-63
479.000      3.81552e-65
480.000      6.42782e-67
481.000      1.02445e-68
482.000      1.54467e-70
483.000      2.20343e-72
484.000      2.97359e-74
485.000      3.79646e-76
486.000      4.58558e-78
487.000      5.23995e-80
488.000      5.66472e-82
489.000      5.79358e-84
490.000      5.60574e-86
491.000      5.13141e-88
492.000      4.44384e-90
493.000      3.64080e-92
494.000      2.82198e-94
495.000      2.06932e-96
496.000      1.43555e-98
497.000     9.42168e-101
498.000     5.84999e-103
499.000     3.43637e-105
500.000     1.90969e-107
