# Gaussian folded, width=10 cm^-1
# [cm^-1] arbitrary
0.000      3.00000e+00
1.000      2.91796e+00
2.000      2.68508e+00
3.000      2.33749e+00
4.000      1.92514e+00
5.000      1.50000e+00
6.000      1.10570e+00
7.000      7.71085e-01
8.000      5.08727e-01
9.000      3.17529e-01
10.000      1.87500e-01
11.000      1.04746e-01
12.000      5.53590e-02
13.000      2.76795e-02
14.000      1.30932e-02
15.000      5.85939e-03
16.000      2.48078e-03
17.000      9.93909e-04
18.000      3.77638e-04
19.000      1.38982e-04
20.000      5.92362e-05
21.000      5.74980e-05
22.000      1.33452e-04
23.000      3.69508e-04
24.000      9.96217e-04
25.000      2.55185e-03
26.000      6.19503e-03
27.000      1.42501e-02
28.000      3.10583e-02
29.000      6.41399e-02
30.000      1.25510e-01
31.000      2.32718e-01
32.000      4.08873e-01
33.000      6.80701e-01
34.000      1.07383e+00
35.000      1.60518e+00
36.000      2.27362e+00
37.000      3.05153e+00
38.000      3.88074e+00
39.000      4.67632e+00
40.000      5.33923e+00
41.000      5.77602e+00
42.000      5.92031e+00
43.000      5.74929e+00
44.000      5.28965e+00
45.000      4.61072e+00
46.000      3.80739e+00
47.000      2.97842e+00
48.000      2.20716e+00
49.000      1.54939e+00
50.000      1.03031e+00
51.000      6.49134e-01
52.000      3.87846e-01
53.000      2.20697e-01
54.000      1.21885e-01
55.000      7.04777e-02
56.000      5.28195e-02
57.000      6.33264e-02
58.000      1.04516e-01
59.000      1.86715e-01
60.000      3.27299e-01
61.000      5.48840e-01
62.000      8.75387e-01
63.000      1.32643e+00
64.000      1.90899e+00
65.000      2.60946e+00
66.000      3.38790e+00
67.000      4.17778e+00
68.000      4.89313e+00
69.000      5.44304e+00
70.000      5.75027e+00
71.000      5.76896e+00
72.000      5.49584e+00
73.000      4.97117e+00
74.000      4.26905e+00
75.000      3.48034e+00
76.000      2.69371e+00
77.000      1.98017e+00
78.000      1.38492e+00
79.000      9.27108e-01
80.000      6.05777e-01
81.000      4.09039e-01
82.000      3.23217e-01
83.000      3.39720e-01
84.000      4.58379e-01
85.000      6.86839e-01
86.000      1.03630e+00
87.000      1.51440e+00
88.000      2.11687e+00
89.000      2.81999e+00
90.000      3.57661e+00
91.000      4.31802e+00
92.000      4.96245e+00
93.000      5.42930e+00
94.000      5.65578e+00
95.000      5.61136e+00
96.000      5.30599e+00
97.000      4.78964e+00
98.000      4.14364e+00
99.000      3.46695e+00
100.000      2.86138e+00
101.000      2.41933e+00
102.000      2.21582e+00
103.000      2.30427e+00
104.000      2.71424e+00
105.000      3.44961e+00
106.000      4.48667e+00
107.000      5.77341e+00
108.000      7.23179e+00
109.000      8.76420e+00
110.000      1.02640e+01
111.000      1.16282e+01
112.000      1.27690e+01
113.000      1.36229e+01
114.000      1.41547e+01
115.000      1.43585e+01
116.000      1.42550e+01
117.000      1.38868e+01
118.000      1.33117e+01
119.000      1.25948e+01
120.000      1.17995e+01
121.000      1.09790e+01
122.000      1.01708e+01
123.000      9.39376e+00
124.000      8.65202e+00
125.000      7.94098e+00
126.000      7.25577e+00
127.000      6.59823e+00
128.000      5.98016e+00
129.000      5.42215e+00
130.000      4.94894e+00
131.000      4.58371e+00
132.000      4.34382e+00
133.000      4.23944e+00
134.000      4.27508e+00
135.000      4.45260e+00
136.000      4.77356e+00
137.000      5.23945e+00
138.000      5.84948e+00
139.000      6.59671e+00
140.000      7.46442e+00
141.000      8.42420e+00
142.000      9.43681e+00
143.000      1.04557e+01
144.000      1.14320e+01
145.000      1.23203e+01
146.000      1.30826e+01
147.000      1.36917e+01
148.000      1.41326e+01
149.000      1.44013e+01
150.000      1.45044e+01
151.000      1.44564e+01
152.000      1.42783e+01
153.000      1.39962e+01
154.000      1.36407e+01
155.000      1.32458e+01
156.000      1.28474e+01
157.000      1.24792e+01
158.000      1.21689e+01
159.000      1.19324e+01
160.000      1.17698e+01
161.000      1.16634e+01
162.000      1.15797e+01
163.000      1.14746e+01
164.000      1.13015e+01
165.000      1.10208e+01
166.000      1.06087e+01
167.000      1.00623e+01
168.000      9.40137e+00
169.000      8.66520e+00
170.000      7.90660e+00
171.000      7.18397e+00
172.000      6.55346e+00
173.000      6.06214e+00
174.000      5.74308e+00
175.000      5.61227e+00
176.000      5.66755e+00
177.000      5.88944e+00
178.000      6.24382e+00
179.000      6.68645e+00
180.000      7.16893e+00
181.000      7.64518e+00
182.000      8.07746e+00
183.000      8.44067e+00
184.000      8.72410e+00
185.000      8.93057e+00
186.000      9.07326e+00
187.000      9.17134e+00
188.000      9.24531e+00
189.000      9.31299e+00
190.000      9.38656e+00
191.000      9.47093e+00
192.000      9.56339e+00
193.000      9.65443e+00
194.000      9.72961e+00
195.000      9.77203e+00
196.000      9.76498e+00
197.000      9.69441e+00
198.000      9.55100e+00
199.000      9.33220e+00
200.000      9.04405e+00
201.000      8.70275e+00
202.000      8.33493e+00
203.000      7.97541e+00
204.000      7.66164e+00
205.000      7.42509e+00
206.000      7.28175e+00
207.000      7.22497e+00
208.000      7.22419e+00
209.000      7.23131e+00
210.000      7.19389e+00
211.000      7.07151e+00
212.000      6.84988e+00
213.000      6.54766e+00
214.000      6.21339e+00
215.000      5.91344e+00
216.000      5.71485e+00
217.000      5.66866e+00
218.000      5.79858e+00
219.000      6.09785e+00
220.000      6.53423e+00
221.000      7.06059e+00
222.000      7.62726e+00
223.000      8.19232e+00
224.000      8.72699e+00
225.000      9.21549e+00
226.000      9.65056e+00
227.000      1.00274e+01
228.000      1.03391e+01
229.000      1.05748e+01
230.000      1.07226e+01
231.000      1.07727e+01
232.000      1.07212e+01
233.000      1.05717e+01
234.000      1.03340e+01
235.000      1.00217e+01
236.000      9.65056e+00
237.000      9.23823e+00
238.000      8.80543e+00
239.000      8.37690e+00
240.000      7.98031e+00
241.000      7.64243e+00
242.000      7.38356e+00
243.000      7.21241e+00
244.000      7.12388e+00
245.000      7.10076e+00
246.000      7.11884e+00
247.000      7.15338e+00
248.000      7.18477e+00
249.000      7.20142e+00
250.000      7.19977e+00
251.000      7.18168e+00
252.000      7.15083e+00
253.000      7.10936e+00
254.000      7.05594e+00
255.000      6.98570e+00
256.000      6.89208e+00
257.000      6.76996e+00
258.000      6.61928e+00
259.000      6.44782e+00
260.000      6.27222e+00
261.000      6.11618e+00
262.000      6.00575e+00
263.000      5.96266e+00
264.000      5.99737e+00
265.000      6.10406e+00
266.000      6.25934e+00
267.000      6.42527e+00
268.000      6.55585e+00
269.000      6.60534e+00
270.000      6.53617e+00
271.000      6.32495e+00
272.000      5.96574e+00
273.000      5.47064e+00
274.000      4.86804e+00
275.000      4.19918e+00
276.000      3.51361e+00
277.000      2.86404e+00
278.000      2.30133e+00
279.000      1.87010e+00
280.000      1.60545e+00
281.000      1.53051e+00
282.000      1.65480e+00
283.000      1.97317e+00
284.000      2.46547e+00
285.000      3.09776e+00
286.000      3.82559e+00
287.000      4.59959e+00
288.000      5.37242e+00
289.000      6.10511e+00
290.000      6.77103e+00
291.000      7.35594e+00
292.000      7.85458e+00
293.000      8.26559e+00
294.000      8.58714e+00
295.000      8.81564e+00
296.000      8.94812e+00
297.000      8.98715e+00
298.000      8.94591e+00
299.000      8.85088e+00
300.000      8.74009e+00
301.000      8.65696e+00
302.000      8.64109e+00
303.000      8.71875e+00
304.000      8.89586e+00
305.000      9.15568e+00
306.000      9.46209e+00
307.000      9.76765e+00
308.000      1.00242e+01
309.000      1.01934e+01
310.000      1.02543e+01
311.000      1.02071e+01
312.000      1.00720e+01
313.000      9.88491e+00
314.000      9.69178e+00
315.000      9.54171e+00
316.000      9.48140e+00
317.000      9.55036e+00
318.000      9.77694e+00
319.000      1.01754e+01
320.000      1.07440e+01
321.000      1.14651e+01
322.000      1.23068e+01
323.000      1.32276e+01
324.000      1.41814e+01
325.000      1.51227e+01
326.000      1.60114e+01
327.000      1.68136e+01
328.000      1.75025e+01
329.000      1.80563e+01
330.000      1.84576e+01
331.000      1.86930e+01
332.000      1.87548e+01
333.000      1.86436e+01
334.000      1.83712e+01
335.000      1.79643e+01
336.000      1.74656e+01
337.000      1.69327e+01
338.000      1.64334e+01
339.000      1.60377e+01
340.000      1.58077e+01
341.000      1.57884e+01
342.000      1.60007e+01
343.000      1.64398e+01
344.000      1.70794e+01
345.000      1.78786e+01
346.000      1.87914e+01
347.000      1.97746e+01
348.000      2.07917e+01
349.000      2.18136e+01
350.000      2.28159e+01
351.000      2.37743e+01
352.000      2.46612e+01
353.000      2.54437e+01
354.000      2.60835e+01
355.000      2.65400e+01
356.000      2.67740e+01
357.000      2.67540e+01
358.000      2.64629e+01
359.000      2.59048e+01
360.000      2.51096e+01
361.000      2.41323e+01
362.000      2.30457e+01
363.000      2.19266e+01
364.000      2.08382e+01
365.000      1.98144e+01
366.000      1.88514e+01
367.000      1.79105e+01
368.000      1.69323e+01
369.000      1.58585e+01
370.000      1.46552e+01
371.000      1.33300e+01
372.000      1.19376e+01
373.000      1.05725e+01
374.000      9.35070e+00
375.000      8.38552e+00
376.000      7.76519e+00
377.000      7.53743e+00
378.000      7.70539e+00
379.000      8.23494e+00
380.000      9.07022e+00
381.000      1.01515e+01
382.000      1.14289e+01
383.000      1.28667e+01
384.000      1.44359e+01
385.000      1.60973e+01
386.000      1.77829e+01
387.000      1.93819e+01
388.000      2.07416e+01
389.000      2.16853e+01
390.000      2.20443e+01
391.000      2.16975e+01
392.000      2.06043e+01
393.000      1.88226e+01
394.000      1.65024e+01
395.000      1.38590e+01
396.000      1.11319e+01
397.000      8.54136e+00
398.000      6.25514e+00
399.000      4.37112e+00
400.000      2.91824e+00
401.000      1.87104e+00
402.000      1.17084e+00
403.000      7.46690e-01
404.000      5.31019e-01
405.000      4.68371e-01
406.000      5.17760e-01
407.000      6.50919e-01
408.000      8.48907e-01
409.000      1.09896e+00
410.000      1.39245e+00
411.000      1.72371e+00
412.000      2.08891e+00
413.000      2.48417e+00
414.000      2.90254e+00
415.000      3.33059e+00
416.000      3.74593e+00
417.000      4.11705e+00
418.000      4.40645e+00
419.000      4.57671e+00
420.000      4.59828e+00
421.000      4.45664e+00
422.000      4.15689e+00
423.000      3.72424e+00
424.000      3.20012e+00
425.000      2.63500e+00
426.000      2.07984e+00
427.000      1.57837e+00
428.000      1.16204e+00
429.000      8.48213e-01
430.000      6.41173e-01
431.000      5.34764e-01
432.000      5.15264e-01
433.000      5.63679e-01
434.000      6.57351e-01
435.000      7.71410e-01
436.000      8.80739e-01
437.000      9.62753e-01
438.000      1.00060e+00
439.000      9.85851e-01
440.000      9.19704e-01
441.000      8.11994e-01
442.000      6.78325e-01
443.000      5.36125e-01
444.000      4.00887e-01
445.000      2.83596e-01
446.000      1.89801e-01
447.000      1.20175e-01
448.000      7.19861e-02
449.000      4.07944e-02
450.000      2.18711e-02
451.000      1.10932e-02
452.000      5.32307e-03
453.000      2.41649e-03
454.000      1.03783e-03
455.000      4.21679e-04
456.000      1.62090e-04
457.000      5.89454e-05
458.000      2.02796e-05
459.000      6.60067e-06
460.000      2.03251e-06
461.000      5.92102e-07
462.000      1.63184e-07
463.000      4.25477e-08
464.000      1.04952e-08
465.000      2.44921e-09
466.000      5.40725e-10
467.000      1.12939e-10
468.000      2.23168e-11
469.000      4.17191e-12
470.000      7.37831e-13
471.000      1.23451e-13
472.000      1.95413e-14
473.000      2.92636e-15
474.000      4.14590e-16
475.000      5.55685e-17
476.000      7.04621e-18
477.000      8.45280e-19
478.000      9.59318e-20
479.000      1.03001e-20
480.000      1.04626e-21
481.000      1.00544e-22
482.000      9.14088e-24
483.000      7.86210e-25
484.000      6.39744e-26
485.000      4.92484e-27
486.000      3.58670e-28
487.000      2.47125e-29
488.000      1.61085e-30
489.000      9.93368e-32
490.000      5.79540e-33
491.000      3.19871e-34
492.000      1.67026e-35
493.000      8.25106e-37
494.000      3.85615e-38
495.000      1.70496e-39
496.000      7.13172e-41
497.000      2.82222e-42
498.000      1.05659e-43
499.000      3.74229e-45
500.000      1.25397e-46
