# Gaussian folded, width=10 cm^-1
# [cm^-1] arbitrary
0.000      3.00000e+00
1.000      2.91796e+00
2.000      2.68508e+00
3.000      2.33749e+00
4.000      1.92514e+00
5.000      1.50000e+00
6.000      1.10570e+00
7.000      7.71085e-01
8.000      5.08727e-01
9.000      3.17530e-01
10.000      1.87501e-01
11.000      1.04750e-01
12.000      5.53732e-02
13.000      2.77244e-02
14.000      1.32277e-02
15.000      6.24172e-03
16.000      3.51035e-03
17.000      3.62086e-03
18.000      6.72862e-03
19.000      1.46883e-02
20.000      3.16434e-02
21.000      6.50305e-02
22.000      1.26791e-01
23.000      2.34337e-01
24.000      4.10518e-01
25.000      6.81657e-01
26.000      1.07289e+00
27.000      1.60071e+00
28.000      2.26382e+00
29.000      3.03497e+00
30.000      3.85701e+00
31.000      4.64657e+00
32.000      5.30638e+00
33.000      5.74441e+00
34.000      5.89481e+00
35.000      5.73411e+00
36.000      5.28739e+00
37.000      4.62198e+00
38.000      3.83136e+00
39.000      3.01449e+00
40.000      2.25746e+00
41.000      1.62224e+00
42.000      1.14446e+00
43.000      8.38630e-01
44.000      7.07003e-01
45.000      7.47943e-01
46.000      9.60328e-01
47.000      1.34249e+00
48.000      1.88621e+00
49.000      2.56820e+00
50.000      3.34281e+00
51.000      4.13986e+00
52.000      4.87031e+00
53.000      5.43987e+00
54.000      5.76760e+00
55.000      5.80420e+00
56.000      5.54386e+00
57.000      5.02577e+00
58.000      4.32469e+00
59.000      3.53373e+00
60.000      2.74514e+00
61.000      2.03484e+00
62.000      1.45437e+00
63.000      1.03102e+00
64.000      7.73911e-01
65.000      6.82548e-01
66.000      7.53918e-01
67.000      9.85767e-01
68.000      1.37510e+00
69.000      1.91286e+00
70.000      2.57729e+00
71.000      3.32902e+00
72.000      4.11100e+00
73.000      4.85492e+00
74.000      5.49360e+00
75.000      5.97660e+00
76.000      6.28444e+00
77.000      6.43668e+00
78.000      6.49083e+00
79.000      6.53170e+00
80.000      6.65401e+00
81.000      6.94307e+00
82.000      7.45850e+00
83.000      8.22463e+00
84.000      9.22859e+00
85.000      1.04249e+01
86.000      1.17439e+01
87.000      1.31012e+01
88.000      1.44054e+01
89.000      1.55655e+01
90.000      1.64951e+01
91.000      1.71189e+01
92.000      1.73789e+01
93.000      1.72421e+01
94.000      1.67082e+01
95.000      1.58134e+01
96.000      1.46288e+01
97.000      1.32524e+01
98.000      1.17955e+01
99.000      1.03677e+01
100.000      9.06532e+00
101.000      7.96460e+00
102.000      7.12092e+00
103.000      6.57118e+00
104.000      6.33606e+00
105.000      6.42004e+00
106.000      6.80967e+00
107.000      7.47243e+00
108.000      8.35867e+00
109.000      9.40807e+00
110.000      1.05590e+01
111.000      1.17582e+01
112.000      1.29664e+01
113.000      1.41587e+01
114.000      1.53185e+01
115.000      1.64287e+01
116.000      1.74617e+01
117.000      1.83749e+01
118.000      1.91118e+01
119.000      1.96109e+01
120.000      1.98196e+01
121.000      1.97088e+01
122.000      1.92828e+01
123.000      1.85817e+01
124.000      1.76750e+01
125.000      1.66487e+01
126.000      1.55895e+01
127.000      1.45729e+01
128.000      1.36560e+01
129.000      1.28763e+01
130.000      1.22552e+01
131.000      1.18024e+01
132.000      1.15189e+01
133.000      1.13992e+01
134.000      1.14307e+01
135.000      1.15930e+01
136.000      1.18568e+01
137.000      1.21838e+01
138.000      1.25277e+01
139.000      1.28357e+01
140.000      1.30525e+01
141.000      1.31257e+01
142.000      1.30126e+01
143.000      1.26886e+01
144.000      1.21530e+01
145.000      1.14312e+01
146.000      1.05714e+01
147.000      9.63559e+00
148.000      8.68757e+00
149.000      7.78197e+00
150.000      6.95688e+00
151.000      6.23199e+00
152.000      5.61184e+00
153.000      5.09207e+00
154.000      4.66668e+00
155.000      4.33408e+00
156.000      4.10090e+00
157.000      3.98241e+00
158.000      3.99929e+00
159.000      4.17132e+00
160.000      4.50916e+00
161.000      5.00683e+00
162.000      5.63762e+00
163.000      6.35592e+00
164.000      7.10612e+00
165.000      7.83730e+00
166.000      8.51995e+00
167.000      9.15874e+00
168.000      9.79509e+00
169.000      1.04959e+01
170.000      1.13298e+01
171.000      1.23380e+01
172.000      1.35109e+01
173.000      1.47798e+01
174.000      1.60302e+01
175.000      1.71319e+01
176.000      1.79759e+01
177.000      1.85056e+01
178.000      1.87310e+01
179.000      1.87213e+01
180.000      1.85800e+01
181.000      1.84110e+01
182.000      1.82865e+01
183.000      1.82275e+01
184.000      1.82020e+01
185.000      1.81429e+01
186.000      1.79811e+01
187.000      1.76832e+01
188.000      1.72830e+01
189.000      1.68928e+01
190.000      1.66888e+01
191.000      1.68698e+01
192.000      1.76014e+01
193.000      1.89603e+01
194.000      2.08986e+01
195.000      2.32406e+01
196.000      2.57157e+01
197.000      2.80197e+01
198.000      2.98859e+01
199.000      3.11449e+01
200.000      3.17538e+01
201.000      3.17883e+01
202.000      3.14000e+01
203.000      3.07572e+01
204.000      2.99890e+01
205.000      2.91517e+01
206.000      2.82281e+01
207.000      2.71531e+01
208.000      2.58559e+01
209.000      2.42971e+01
210.000      2.24914e+01
211.000      2.05069e+01
212.000      1.84479e+01
213.000      1.64295e+01
214.000      1.45539e+01
215.000      1.28951e+01
216.000      1.14929e+01
217.000      1.03536e+01
218.000      9.45449e+00
219.000      8.75042e+00
220.000      8.18080e+00
221.000      7.67898e+00
222.000      7.18300e+00
223.000      6.64699e+00
224.000      6.05056e+00
225.000      5.40387e+00
226.000      4.74665e+00
227.000      4.14128e+00
228.000      3.66150e+00
229.000      3.37928e+00
230.000      3.35243e+00
231.000      3.61536e+00
232.000      4.17410e+00
233.000      5.00625e+00
234.000      6.06538e+00
235.000      7.28870e+00
236.000      8.60669e+00
237.000      9.95231e+00
238.000      1.12682e+01
239.000      1.25098e+01
240.000      1.36442e+01
241.000      1.46444e+01
242.000      1.54815e+01
243.000      1.61184e+01
244.000      1.65070e+01
245.000      1.65939e+01
246.000      1.63329e+01
247.000      1.57006e+01
248.000      1.47111e+01
249.000      1.34219e+01
250.000      1.19287e+01
251.000      1.03486e+01
252.000      8.79883e+00
253.000      7.37565e+00
254.000      6.14112e+00
255.000      5.12015e+00
256.000      4.30679e+00
257.000      3.67642e+00
258.000      3.19932e+00
259.000      2.85269e+00
260.000      2.62942e+00
261.000      2.54318e+00
262.000      2.63007e+00
263.000      2.94622e+00
264.000      3.56089e+00
265.000      4.54464e+00
266.000      5.95345e+00
267.000      7.81108e+00
268.000      1.00938e+01
269.000      1.27220e+01
270.000      1.55634e+01
271.000      1.84491e+01
272.000      2.12010e+01
273.000      2.36657e+01
274.000      2.57445e+01
275.000      2.74122e+01
276.000      2.87171e+01
277.000      2.97603e+01
278.000      3.06605e+01
279.000      3.15120e+01
280.000      3.23495e+01
281.000      3.31290e+01
282.000      3.37320e+01
283.000      3.39925e+01
284.000      3.37385e+01
285.000      3.28383e+01
286.000      3.12385e+01
287.000      2.89830e+01
288.000      2.62086e+01
289.000      2.31196e+01
290.000      1.99491e+01
291.000      1.69175e+01
292.000      1.41990e+01
293.000      1.19040e+01
294.000      1.00763e+01
295.000      8.70439e+00
296.000      7.73910e+00
297.000      7.11103e+00
298.000      6.74440e+00
299.000      6.56521e+00
300.000      6.50505e+00
301.000      6.50236e+00
302.000      6.50301e+00
303.000      6.46119e+00
304.000      6.34066e+00
305.000      6.11651e+00
306.000      5.77700e+00
307.000      5.32527e+00
308.000      4.78017e+00
309.000      4.17543e+00
310.000      3.55633e+00
311.000      2.97401e+00
312.000      2.47805e+00
313.000      2.10903e+00
314.000      1.89266e+00
315.000      1.83694e+00
316.000      1.93253e+00
317.000      2.15606e+00
318.000      2.47506e+00
319.000      2.85310e+00
320.000      3.25393e+00
321.000      3.64392e+00
322.000      3.99276e+00
323.000      4.27332e+00
324.000      4.46173e+00
325.000      4.53857e+00
326.000      4.49162e+00
327.000      4.31930e+00
328.000      4.03345e+00
329.000      3.65993e+00
330.000      3.23571e+00
331.000      2.80282e+00
332.000      2.40026e+00
333.000      2.05630e+00
334.000      1.78343e+00
335.000      1.57768e+00
336.000      1.42225e+00
337.000      1.29418e+00
338.000      1.17179e+00
339.000      1.04046e+00
340.000      8.95200e-01
341.000      7.39918e-01
342.000      5.84123e-01
343.000      4.38813e-01
344.000      3.12980e-01
345.000      2.11643e-01
346.000      1.35573e-01
347.000      8.22248e-02
348.000      4.72016e-02
349.000      2.56420e-02
350.000      1.31808e-02
351.000      6.41054e-03
352.000      2.94980e-03
353.000      1.28418e-03
354.000      5.28917e-04
355.000      2.06097e-04
356.000      7.59764e-05
357.000      2.64975e-05
358.000      8.74280e-06
359.000      2.72907e-06
360.000      8.05928e-07
361.000      2.25163e-07
362.000      5.95133e-08
363.000      1.48816e-08
364.000      3.52049e-09
365.000      7.87904e-10
366.000      1.66825e-10
367.000      3.34170e-11
368.000      6.33274e-12
369.000      1.13536e-12
370.000      1.92571e-13
371.000      3.09007e-14
372.000      4.69097e-15
373.000      6.73711e-16
374.000      9.15384e-17
375.000      1.17666e-17
376.000      1.43092e-18
377.000      1.64625e-19
378.000      1.79183e-20
379.000      1.84507e-21
380.000      1.79742e-22
381.000      1.65654e-23
382.000      1.44435e-24
383.000      1.19140e-25
384.000      9.29745e-27
385.000      6.86415e-28
386.000      4.79432e-29
387.000      3.16800e-30
388.000      1.98044e-31
389.000      1.17126e-32
390.000      6.55338e-34
391.000      3.46892e-35
392.000      1.73716e-36
393.000      8.23007e-38
394.000      3.68880e-39
395.000      1.56417e-40
396.000      6.27481e-42
397.000      2.38141e-43
398.000      8.55039e-45
399.000      2.90439e-46
400.000      9.33345e-48
401.000      2.83757e-49
402.000      8.16148e-51
403.000      2.22080e-52
404.000      5.71697e-54
405.000      1.39233e-55
406.000      3.20799e-57
407.000      6.99267e-59
408.000      1.44202e-60
409.000      2.81330e-62
410.000      5.19253e-64
411.000      9.06692e-66
412.000      1.49781e-67
413.000      2.34085e-69
414.000      3.46104e-71
415.000      4.84125e-73
416.000      6.40658e-75
417.000      8.02070e-77
418.000      9.49983e-79
419.000      1.06448e-80
420.000      1.12843e-82
421.000      1.13170e-84
422.000      1.07376e-86
423.000      9.63825e-89
424.000      8.18479e-91
425.000      6.57559e-93
426.000      4.99780e-95
427.000      3.59369e-97
428.000      2.44467e-99
429.000     1.57332e-101
430.000     9.57929e-104
431.000     5.51780e-106
432.000     3.00688e-108
433.000     1.55018e-110
434.000     7.56082e-113
435.000     3.48876e-115
436.000     1.52297e-117
437.000     6.28970e-120
438.000     2.45746e-122
439.000     9.08363e-125
440.000     3.17651e-127
441.000     1.05089e-129
442.000     3.28916e-132
443.000     9.73932e-135
444.000     2.72829e-137
445.000     7.23051e-140
446.000     1.81286e-142
447.000     4.30011e-145
448.000     9.64964e-148
449.000     2.04861e-150
450.000     4.11460e-153
451.000     7.81829e-156
452.000     1.40544e-158
453.000     2.39020e-161
454.000     3.84566e-164
455.000     5.85364e-167
456.000     8.42943e-170
457.000     1.14839e-172
458.000     1.48012e-175
459.000     1.80477e-178
460.000     2.08192e-181
461.000     2.27209e-184
462.000     2.34586e-187
463.000     2.29139e-190
464.000     2.11744e-193
465.000     1.85116e-196
466.000     1.53106e-199
467.000     1.19800e-202
468.000     8.86832e-206
469.000     6.21073e-209
470.000     4.11492e-212
471.000     2.57928e-215
472.000     1.52951e-218
473.000     8.58072e-222
474.000     4.55421e-225
475.000     2.28676e-228
476.000     1.08629e-231
477.000     4.88187e-235
478.000     2.07561e-238
479.000     8.34879e-242
480.000     3.17701e-245
481.000     1.14375e-248
482.000     3.89548e-252
483.000     1.25519e-255
484.000     3.82626e-259
485.000     1.10346e-262
486.000     3.01063e-266
487.000     7.77098e-270
488.000     1.89763e-273
489.000     4.38394e-277
490.000     9.58155e-281
491.000     1.98118e-284
492.000     3.87552e-288
493.000     7.17223e-292
494.000     1.25573e-295
495.000     2.07996e-299
496.000     3.25935e-303
497.000     4.83198e-307
498.000     6.77699e-311
499.000     8.99220e-315
500.000     1.12879e-318
