# Gaussian folded, width=10 cm^-1
# [cm^-1] arbitrary
0.000      3.00000e+00
1.000      2.91796e+00
2.000      2.68508e+00
3.000      2.33749e+00
4.000      1.92514e+00
5.000      1.50000e+00
6.000      1.10570e+00
7.000      7.71085e-01
8.000      5.08727e-01
9.000      3.17529e-01
10.000      1.87500e-01
11.000      1.04746e-01
12.000      5.53590e-02
13.000      2.76796e-02
14.000      1.30934e-02
15.000      5.85992e-03
16.000      2.48264e-03
17.000      1.00015e-03
18.000      3.97423e-04
19.000      1.98395e-04
20.000      2.28179e-04
21.000      5.12377e-04
22.000      1.29303e-03
23.000      3.16783e-03
24.000      7.38765e-03
25.000      1.63649e-02
26.000      3.44324e-02
27.000      6.88260e-02
28.000      1.30728e-01
29.000      2.35998e-01
30.000      4.05006e-01
31.000      6.60863e-01
32.000      1.02548e+00
33.000      1.51347e+00
34.000      2.12470e+00
35.000      2.83748e+00
36.000      3.60497e+00
37.000      4.35722e+00
38.000      5.01013e+00
39.000      5.48020e+00
40.000      5.70184e+00
41.000      5.64232e+00
42.000      5.30963e+00
43.000      4.75079e+00
44.000      4.04097e+00
45.000      3.26695e+00
46.000      2.50990e+00
47.000      1.83215e+00
48.000      1.27075e+00
49.000      8.37948e-01
50.000      5.26876e-01
51.000      3.19559e-01
52.000      1.94838e-01
53.000      1.34537e-01
54.000      1.27351e-01
55.000      1.70573e-01
56.000      2.70024e-01
57.000      4.38426e-01
58.000      6.92262e-01
59.000      1.04715e+00
60.000      1.51205e+00
61.000      2.08326e+00
62.000      2.73946e+00
63.000      3.43978e+00
64.000      4.12589e+00
65.000      4.72901e+00
66.000      5.18056e+00
67.000      5.42473e+00
68.000      5.42955e+00
69.000      5.19394e+00
70.000      4.74844e+00
71.000      4.14957e+00
72.000      3.46923e+00
73.000      2.78204e+00
74.000      2.15386e+00
75.000      1.63376e+00
76.000      1.25079e+00
77.000      1.01487e+00
78.000      9.20477e-01
79.000      9.51564e-01
80.000      1.08634e+00
81.000      1.30145e+00
82.000      1.57525e+00
83.000      1.89008e+00
84.000      2.23327e+00
85.000      2.59636e+00
86.000      2.97271e+00
87.000      3.35390e+00
88.000      3.72655e+00
89.000      4.07105e+00
90.000      4.36387e+00
91.000      4.58349e+00
92.000      4.71864e+00
93.000      4.77604e+00
94.000      4.78457e+00
95.000      4.79327e+00
96.000      4.86277e+00
97.000      5.05203e+00
98.000      5.40379e+00
99.000      5.93326e+00
100.000      6.62320e+00
101.000      7.42692e+00
102.000      8.27810e+00
103.000      9.10450e+00
104.000      9.84180e+00
105.000      1.04441e+01
106.000      1.08893e+01
107.000      1.11786e+01
108.000      1.13315e+01
109.000      1.13779e+01
110.000      1.13495e+01
111.000      1.12720e+01
112.000      1.11598e+01
113.000      1.10141e+01
114.000      1.08240e+01
115.000      1.05715e+01
116.000      1.02388e+01
117.000      9.81567e+00
118.000      9.30618e+00
119.000      8.73187e+00
120.000      8.13040e+00
121.000      7.54962e+00
122.000      7.03854e+00
123.000      6.63746e+00
124.000      6.37063e+00
125.000      6.24368e+00
126.000      6.24659e+00
127.000      6.36103e+00
128.000      6.56879e+00
129.000      6.85780e+00
130.000      7.22340e+00
131.000      7.66449e+00
132.000      8.17697e+00
133.000      8.74751e+00
134.000      9.35096e+00
135.000      9.95254e+00
136.000      1.05140e+01
137.000      1.10019e+01
138.000      1.13944e+01
139.000      1.16855e+01
140.000      1.18853e+01
141.000      1.20166e+01
142.000      1.21085e+01
143.000      1.21881e+01
144.000      1.22738e+01
145.000      1.23697e+01
146.000      1.24648e+01
147.000      1.25368e+01
148.000      1.25591e+01
149.000      1.25096e+01
150.000      1.23772e+01
151.000      1.21646e+01
152.000      1.18873e+01
153.000      1.15688e+01
154.000      1.12357e+01
155.000      1.09129e+01
156.000      1.06202e+01
157.000      1.03701e+01
158.000      1.01651e+01
159.000      9.99702e+00
160.000      9.84691e+00
161.000      9.68780e+00
162.000      9.49089e+00
163.000      9.23372e+00
164.000      8.90804e+00
165.000      8.52474e+00
166.000      8.11362e+00
167.000      7.71755e+00
168.000      7.38249e+00
169.000      7.14624e+00
170.000      7.02904e+00
171.000      7.02895e+00
172.000      7.12318e+00
173.000      7.27473e+00
174.000      7.44227e+00
175.000      7.58997e+00
176.000      7.69459e+00
177.000      7.74811e+00
178.000      7.75611e+00
179.000      7.73320e+00
180.000      7.69763e+00
181.000      7.66642e+00
182.000      7.65200e+00
183.000      7.66026e+00
184.000      7.68990e+00
185.000      7.73279e+00
186.000      7.77551e+00
187.000      7.80182e+00
188.000      7.79592e+00
189.000      7.74585e+00
190.000      7.64616e+00
191.000      7.49926e+00
192.000      7.31527e+00
193.000      7.11062e+00
194.000      6.90596e+00
195.000      6.72382e+00
196.000      6.58614e+00
197.000      6.51146e+00
198.000      6.51175e+00
199.000      6.58935e+00
200.000      6.73500e+00
201.000      6.92833e+00
202.000      7.14143e+00
203.000      7.34516e+00
204.000      7.51616e+00
205.000      7.64226e+00
206.000      7.72393e+00
207.000      7.77130e+00
208.000      7.79787e+00
209.000      7.81348e+00
210.000      7.81966e+00
211.000      7.80904e+00
212.000      7.76926e+00
213.000      7.68948e+00
214.000      7.56726e+00
215.000      7.41314e+00
216.000      7.25165e+00
217.000      7.11846e+00
218.000      7.05434e+00
219.000      7.09740e+00
220.000      7.27490e+00
221.000      7.59658e+00
222.000      8.05116e+00
223.000      8.60710e+00
224.000      9.21801e+00
225.000      9.83136e+00
226.000      1.03982e+01
227.000      1.08809e+01
228.000      1.12572e+01
229.000      1.15198e+01
230.000      1.16718e+01
231.000      1.17215e+01
232.000      1.16780e+01
233.000      1.15486e+01
234.000      1.13393e+01
235.000      1.10568e+01
236.000      1.07100e+01
237.000      1.03105e+01
238.000      9.87196e+00
239.000      9.40871e+00
240.000      8.93497e+00
241.000      8.46543e+00
242.000      8.01687e+00
243.000      7.60990e+00
244.000      7.26915e+00
245.000      7.02093e+00
246.000      6.88836e+00
247.000      6.88513e+00
248.000      7.00997e+00
249.000      7.24368e+00
250.000      7.55019e+00
251.000      7.88143e+00
252.000      8.18498e+00
253.000      8.41232e+00
254.000      8.52584e+00
255.000      8.50300e+00
256.000      8.33730e+00
257.000      8.03662e+00
258.000      7.62014e+00
259.000      7.11485e+00
260.000      6.55259e+00
261.000      5.96712e+00
262.000      5.39115e+00
263.000      4.85252e+00
264.000      4.37010e+00
265.000      3.95042e+00
266.000      3.58666e+00
267.000      3.26107e+00
268.000      2.95069e+00
269.000      2.63477e+00
270.000      2.30127e+00
271.000      1.95033e+00
272.000      1.59346e+00
273.000      1.24936e+00
274.000      9.38269e-01
275.000      6.77131e-01
276.000      4.77249e-01
277.000      3.44849e-01
278.000      2.83878e-01
279.000      2.99640e-01
280.000      4.01699e-01
281.000      6.04714e-01
282.000      9.26391e-01
283.000      1.38244e+00
284.000      1.97938e+00
285.000      2.70694e+00
286.000      3.53275e+00
287.000      4.40193e+00
288.000      5.24326e+00
289.000      5.98175e+00
290.000      6.55483e+00
291.000      6.92746e+00
292.000      7.10127e+00
293.000      7.11428e+00
294.000      7.03081e+00
295.000      6.92482e+00
296.000      6.86200e+00
297.000      6.88597e+00
298.000      7.01225e+00
299.000      7.23037e+00
300.000      7.51176e+00
301.000      7.82003e+00
302.000      8.12034e+00
303.000      8.38622e+00
304.000      8.60333e+00
305.000      8.77083e+00
306.000      8.90020e+00
307.000      9.01186e+00
308.000      9.12959e+00
309.000      9.27378e+00
310.000      9.45559e+00
311.000      9.67418e+00
312.000      9.91854e+00
313.000      1.01736e+01
314.000      1.04283e+01
315.000      1.06822e+01
316.000      1.09483e+01
317.000      1.12499e+01
318.000      1.16139e+01
319.000      1.20627e+01
320.000      1.26071e+01
321.000      1.32436e+01
322.000      1.39550e+01
323.000      1.47144e+01
324.000      1.54893e+01
325.000      1.62467e+01
326.000      1.69557e+01
327.000      1.75911e+01
328.000      1.81350e+01
329.000      1.85787e+01
330.000      1.89228e+01
331.000      1.91765e+01
332.000      1.93555e+01
333.000      1.94802e+01
334.000      1.95732e+01
335.000      1.96582e+01
336.000      1.97587e+01
337.000      1.98973e+01
338.000      2.00930e+01
339.000      2.03602e+01
340.000      2.07061e+01
341.000      2.11299e+01
342.000      2.16229e+01
343.000      2.21698e+01
344.000      2.27498e+01
345.000      2.33387e+01
346.000      2.39113e+01
347.000      2.44434e+01
348.000      2.49146e+01
349.000      2.53111e+01
350.000      2.56261e+01
351.000      2.58597e+01
352.000      2.60165e+01
353.000      2.61007e+01
354.000      2.61116e+01
355.000      2.60393e+01
356.000      2.58626e+01
357.000      2.55497e+01
358.000      2.50634e+01
359.000      2.43686e+01
360.000      2.34433e+01
361.000      2.22880e+01
362.000      2.09320e+01
363.000      1.94339e+01
364.000      1.78727e+01
365.000      1.63341e+01
366.000      1.48925e+01
367.000      1.35969e+01
368.000      1.24650e+01
369.000      1.14860e+01
370.000      1.06333e+01
371.000      9.87860e+00
372.000      9.20507e+00
373.000      8.61289e+00
374.000      8.11826e+00
375.000      7.74736e+00
376.000      7.52922e+00
377.000      7.49032e+00
378.000      7.65190e+00
379.000      8.02913e+00
380.000      8.63051e+00
381.000      9.45633e+00
382.000      1.04958e+01
383.000      1.17237e+01
384.000      1.30965e+01
385.000      1.45500e+01
386.000      1.59983e+01
387.000      1.73360e+01
388.000      1.84444e+01
389.000      1.92031e+01
390.000      1.95056e+01
391.000      1.92770e+01
392.000      1.84899e+01
393.000      1.71746e+01
394.000      1.54191e+01
395.000      1.33584e+01
396.000      1.11548e+01
397.000      8.97365e+00
398.000      6.96003e+00
399.000      5.22159e+00
400.000      3.82022e+00
401.000      2.77291e+00
402.000      2.05984e+00
403.000      1.63628e+00
404.000      1.44535e+00
405.000      1.42907e+00
406.000      1.53626e+00
407.000      1.72681e+00
408.000      1.97225e+00
409.000      2.25335e+00
410.000      2.55594e+00
411.000      2.86669e+00
412.000      3.17015e+00
413.000      3.44820e+00
414.000      3.68147e+00
415.000      3.85186e+00
416.000      3.94476e+00
417.000      3.95038e+00
418.000      3.86403e+00
419.000      3.68623e+00
420.000      3.42313e+00
421.000      3.08738e+00
422.000      2.69873e+00
423.000      2.28344e+00
424.000      1.87204e+00
425.000      1.49547e+00
426.000      1.18063e+00
427.000      9.46331e-01
428.000      8.00674e-01
429.000      7.40153e-01
430.000      7.50528e-01
431.000      8.09220e-01
432.000      8.88943e-01
433.000      9.62142e-01
434.000      1.00559e+00
435.000      1.00420e+00
436.000      9.53197e-01
437.000      8.57874e-01
438.000      7.31196e-01
439.000      5.89894e-01
440.000      4.50330e-01
441.000      3.25277e-01
442.000      2.22287e-01
443.000      1.43715e-01
444.000      8.79054e-02
445.000      5.08683e-02
446.000      2.78482e-02
447.000      1.44234e-02
448.000      7.06729e-03
449.000      3.27610e-03
450.000      1.43674e-03
451.000      5.96099e-04
452.000      2.33978e-04
453.000      8.68861e-05
454.000      3.05241e-05
455.000      1.01450e-05
456.000      3.18992e-06
457.000      9.48910e-07
458.000      2.67047e-07
459.000      7.10997e-08
460.000      1.79088e-08
461.000      4.26758e-09
462.000      9.62087e-10
463.000      2.05194e-10
464.000      4.14032e-11
465.000      7.90350e-12
466.000      1.42733e-12
467.000      2.43862e-13
468.000      3.94169e-14
469.000      6.02753e-15
470.000      8.71993e-16
471.000      1.19345e-16
472.000      1.54530e-17
473.000      1.89296e-18
474.000      2.19374e-19
475.000      2.40517e-20
476.000      2.49474e-21
477.000      2.44807e-22
478.000      2.27268e-23
479.000      1.99604e-24
480.000      1.65852e-25
481.000      1.30373e-26
482.000      9.69556e-28
483.000      6.82143e-29
484.000      4.54042e-30
485.000      2.85913e-31
486.000      1.70329e-32
487.000      9.59981e-34
488.000      5.11862e-35
489.000      2.58203e-36
490.000      1.23222e-37
491.000      5.56328e-39
492.000      2.37625e-40
493.000      9.60220e-42
494.000      3.67085e-43
495.000      1.32764e-44
496.000      4.54268e-46
497.000      1.47049e-47
498.000      4.50327e-49
499.000      1.30471e-50
500.000      3.57614e-52
