# Gaussian folded, width=10 cm^-1
# [cm^-1] arbitrary
0.000      3.00000e+00
1.000      2.91796e+00
2.000      2.68508e+00
3.000      2.33749e+00
4.000      1.92514e+00
5.000      1.50000e+00
6.000      1.10570e+00
7.000      7.71085e-01
8.000      5.08727e-01
9.000      3.17530e-01
10.000      1.87501e-01
11.000      1.04749e-01
12.000      5.53708e-02
13.000      2.77175e-02
14.000      1.32090e-02
15.000      6.19389e-03
16.000      3.39536e-03
17.000      3.36143e-03
18.000      6.18016e-03
19.000      1.36037e-02
20.000      2.96421e-02
21.000      6.15948e-02
22.000      1.21329e-01
23.000      2.26345e-01
24.000      3.99866e-01
25.000      6.68953e-01
26.000      1.05980e+00
27.000      1.59003e+00
28.000      2.25920e+00
29.000      3.04005e+00
30.000      3.87430e+00
31.000      4.67628e+00
32.000      5.34581e+00
33.000      5.78817e+00
34.000      5.93600e+00
35.000      5.76611e+00
36.000      5.30555e+00
37.000      4.62470e+00
38.000      3.82009e+00
39.000      2.99285e+00
40.000      2.22978e+00
41.000      1.59220e+00
42.000      1.11421e+00
43.000      8.08602e-01
44.000      6.76423e-01
45.000      7.15791e-01
46.000      9.26465e-01
47.000      1.30859e+00
48.000      1.85616e+00
49.000      2.54764e+00
50.000      3.33785e+00
51.000      4.15514e+00
52.000      4.90712e+00
53.000      5.49498e+00
54.000      5.83349e+00
55.000      5.87067e+00
56.000      5.60064e+00
57.000      5.06516e+00
58.000      4.34336e+00
59.000      3.53313e+00
60.000      2.73061e+00
61.000      2.01395e+00
62.000      1.43521e+00
63.000      1.02084e+00
64.000      7.78401e-01
65.000      7.05325e-01
66.000      7.96089e-01
67.000      1.04528e+00
68.000      1.44603e+00
69.000      1.98516e+00
70.000      2.63745e+00
71.000      3.36209e+00
72.000      4.10374e+00
73.000      4.79945e+00
74.000      5.39056e+00
75.000      5.83694e+00
76.000      6.12949e+00
77.000      6.29660e+00
78.000      6.40172e+00
79.000      6.53164e+00
80.000      6.77770e+00
81.000      7.21493e+00
82.000      7.88444e+00
83.000      8.78412e+00
84.000      9.86952e+00
85.000      1.10644e+01
86.000      1.22773e+01
87.000      1.34186e+01
88.000      1.44145e+01
89.000      1.52140e+01
90.000      1.57886e+01
91.000      1.61276e+01
92.000      1.62302e+01
93.000      1.61001e+01
94.000      1.57417e+01
95.000      1.51617e+01
96.000      1.43724e+01
97.000      1.33969e+01
98.000      1.22734e+01
99.000      1.10572e+01
100.000      9.82015e+00
101.000      8.64591e+00
102.000      7.62260e+00
103.000      6.83336e+00
104.000      6.34659e+00
105.000      6.20770e+00
106.000      6.43390e+00
107.000      7.01281e+00
108.000      7.90474e+00
109.000      9.04801e+00
110.000      1.03664e+01
111.000      1.17776e+01
112.000      1.32017e+01
113.000      1.45684e+01
114.000      1.58214e+01
115.000      1.69188e+01
116.000      1.78300e+01
117.000      1.85309e+01
118.000      1.90002e+01
119.000      1.92192e+01
120.000      1.91772e+01
121.000      1.88790e+01
122.000      1.83514e+01
123.000      1.76449e+01
124.000      1.68273e+01
125.000      1.59725e+01
126.000      1.51476e+01
127.000      1.44032e+01
128.000      1.37703e+01
129.000      1.32629e+01
130.000      1.28839e+01
131.000      1.26301e+01
132.000      1.24955e+01
133.000      1.24699e+01
134.000      1.25375e+01
135.000      1.26746e+01
136.000      1.28504e+01
137.000      1.30281e+01
138.000      1.31686e+01
139.000      1.32338e+01
140.000      1.31899e+01
141.000      1.30107e+01
142.000      1.26802e+01
143.000      1.21960e+01
144.000      1.15706e+01
145.000      1.08316e+01
146.000      1.00179e+01
147.000      9.17420e+00
148.000      8.34356e+00
149.000      7.56035e+00
150.000      6.84632e+00
151.000      6.21014e+00
152.000      5.65056e+00
153.000      5.16212e+00
154.000      4.74138e+00
155.000      4.39232e+00
156.000      4.12905e+00
157.000      3.97502e+00
158.000      3.95845e+00
159.000      4.10468e+00
160.000      4.42741e+00
161.000      4.92113e+00
162.000      5.55770e+00
163.000      6.28902e+00
164.000      7.05661e+00
165.000      7.80672e+00
166.000      8.50726e+00
167.000      9.16052e+00
168.000      9.80600e+00
169.000      1.05093e+01
170.000      1.13388e+01
171.000      1.23368e+01
172.000      1.34956e+01
173.000      1.47499e+01
174.000      1.59884e+01
175.000      1.70834e+01
176.000      1.79270e+01
177.000      1.84619e+01
178.000      1.86955e+01
179.000      1.86937e+01
180.000      1.85573e+01
181.000      1.83887e+01
182.000      1.82611e+01
183.000      1.81976e+01
184.000      1.81697e+01
185.000      1.81134e+01
186.000      1.79614e+01
187.000      1.76811e+01
188.000      1.73055e+01
189.000      1.69453e+01
190.000      1.67737e+01
191.000      1.69860e+01
192.000      1.77433e+01
193.000      1.91175e+01
194.000      2.10569e+01
195.000      2.33841e+01
196.000      2.58300e+01
197.000      2.80955e+01
198.000      2.99221e+01
199.000      3.11488e+01
200.000      3.17407e+01
201.000      3.17776e+01
202.000      3.14114e+01
203.000      3.08061e+01
204.000      3.00824e+01
205.000      2.92860e+01
206.000      2.83879e+01
207.000      2.73126e+01
208.000      2.59822e+01
209.000      2.43562e+01
210.000      2.24543e+01
211.000      2.03559e+01
212.000      1.81804e+01
213.000      1.60592e+01
214.000      1.41092e+01
215.000      1.24159e+01
216.000      1.10265e+01
217.000      9.94977e+00
218.000      9.15978e+00
219.000      8.60082e+00
220.000      8.19424e+00
221.000      7.84921e+00
222.000      7.47769e+00
223.000      7.01177e+00
224.000      6.41877e+00
225.000      5.70921e+00
226.000      4.93499e+00
227.000      4.17815e+00
228.000      3.53419e+00
229.000      3.09482e+00
230.000      2.93424e+00
231.000      3.10113e+00
232.000      3.61590e+00
233.000      4.47156e+00
234.000      5.63644e+00
235.000      7.05732e+00
236.000      8.66263e+00
237.000      1.03660e+01
238.000      1.20706e+01
239.000      1.36758e+01
240.000      1.50845e+01
241.000      1.62126e+01
242.000      1.69966e+01
243.000      1.73996e+01
244.000      1.74130e+01
245.000      1.70538e+01
246.000      1.63602e+01
247.000      1.53862e+01
248.000      1.41967e+01
249.000      1.28630e+01
250.000      1.14584e+01
251.000      1.00522e+01
252.000      8.70355e+00
253.000      7.45555e+00
254.000      6.33268e+00
255.000      5.34209e+00
256.000      4.47891e+00
257.000      3.73397e+00
258.000      3.10186e+00
259.000      2.58736e+00
260.000      2.20927e+00
261.000      2.00146e+00
262.000      2.01134e+00
263.000      2.29600e+00
264.000      2.91578e+00
265.000      3.92536e+00
266.000      5.36244e+00
267.000      7.23543e+00
268.000      9.51274e+00
269.000      1.21171e+01
270.000      1.49285e+01
271.000      1.77970e+01
272.000      2.05656e+01
273.000      2.30971e+01
274.000      2.52994e+01
275.000      2.71411e+01
276.000      2.86521e+01
277.000      2.99073e+01
278.000      3.09966e+01
279.000      3.19904e+01
280.000      3.29092e+01
281.000      3.37072e+01
282.000      3.42761e+01
283.000      3.44674e+01
284.000      3.41302e+01
285.000      3.31505e+01
286.000      3.14850e+01
287.000      2.91772e+01
288.000      2.63544e+01
289.000      2.32062e+01
290.000      1.99514e+01
291.000      1.68032e+01
292.000      1.39396e+01
293.000      1.14854e+01
294.000      9.50644e+00
295.000      8.01487e+00
296.000      6.98052e+00
297.000      6.34466e+00
298.000      6.03241e+00
299.000      5.96233e+00
300.000      6.05292e+00
301.000      6.22702e+00
302.000      6.41486e+00
303.000      6.55644e+00
304.000      6.60340e+00
305.000      6.52083e+00
306.000      6.28890e+00
307.000      5.90465e+00
308.000      5.38321e+00
309.000      4.75778e+00
310.000      4.07726e+00
311.000      3.40108e+00
312.000      2.79167e+00
313.000      2.30603e+00
314.000      1.98803e+00
315.000      1.86298e+00
316.000      1.93499e+00
317.000      2.18709e+00
318.000      2.58364e+00
319.000      3.07454e+00
320.000      3.60080e+00
321.000      4.10102e+00
322.000      4.51819e+00
323.000      4.80608e+00
324.000      4.93429e+00
325.000      4.89142e+00
326.000      4.68566e+00
327.000      4.34292e+00
328.000      3.90269e+00
329.000      3.41212e+00
330.000      2.91920e+00
331.000      2.46594e+00
332.000      2.08253e+00
333.000      1.78374e+00
334.000      1.56799e+00
335.000      1.41982e+00
336.000      1.31499e+00
337.000      1.22708e+00
338.000      1.13401e+00
339.000      1.02248e+00
340.000      8.89562e-01
341.000      7.41205e-01
342.000      5.88676e-01
343.000      4.44334e-01
344.000      3.18171e-01
345.000      2.15901e-01
346.000      1.38742e-01
347.000      8.44014e-02
348.000      4.85928e-02
349.000      2.64736e-02
350.000      1.36468e-02
351.000      6.65591e-03
352.000      3.07131e-03
353.000      1.34082e-03
354.000      5.53792e-04
355.000      2.16394e-04
356.000      7.99951e-05
357.000      2.79770e-05
358.000      9.25676e-06
359.000      2.89758e-06
360.000      8.58082e-07
361.000      2.40404e-07
362.000      6.37192e-08
363.000      1.59778e-08
364.000      3.79038e-09
365.000      8.50679e-10
366.000      1.80620e-10
367.000      3.62814e-11
368.000      6.89477e-12
369.000      1.23957e-12
370.000      2.10835e-13
371.000      3.39259e-14
372.000      5.16461e-15
373.000      7.43809e-16
374.000      1.01345e-16
375.000      1.30636e-17
376.000      1.59308e-18
377.000      1.83794e-19
378.000      2.00606e-20
379.000      2.07144e-21
380.000      2.02358e-22
381.000      1.87018e-23
382.000      1.63518e-24
383.000      1.35259e-25
384.000      1.05848e-26
385.000      7.83641e-28
386.000      5.48870e-29
387.000      3.63697e-30
388.000      2.27996e-31
389.000      1.35217e-32
390.000      7.58674e-34
391.000      4.02713e-35
392.000      2.02234e-36
393.000      9.60792e-38
394.000      4.31840e-39
395.000      1.83626e-40
396.000      7.38689e-42
397.000      2.81130e-43
398.000      1.01221e-44
399.000      3.44788e-46
400.000      1.11110e-47
401.000      3.38741e-49
402.000      9.77016e-51
403.000      2.66596e-52
404.000      6.88212e-54
405.000      1.68077e-55
406.000      3.88341e-57
407.000      8.48859e-59
408.000      1.75540e-60
409.000      3.43425e-62
410.000      6.35634e-64
411.000      1.11301e-65
412.000      1.84378e-67
413.000      2.88960e-69
414.000      4.28433e-71
415.000      6.00960e-73
416.000      7.97491e-75
417.000      1.00121e-76
418.000      1.18916e-78
419.000      1.33620e-80
420.000      1.42044e-82
421.000      1.42854e-84
422.000      1.35918e-86
423.000      1.22344e-88
424.000      1.04184e-90
425.000      8.39347e-93
426.000      6.39732e-95
427.000      4.61288e-97
428.000      3.14676e-99
429.000     2.03083e-101
430.000     1.23994e-103
431.000     7.16216e-106
432.000     3.91386e-108
433.000     2.02342e-110
434.000     9.89652e-113
435.000     4.57928e-115
436.000     2.00461e-117
437.000     8.30195e-120
438.000     3.25273e-122
439.000     1.20568e-124
440.000     4.22801e-127
441.000     1.40267e-129
442.000     4.40244e-132
443.000     1.30722e-134
444.000     3.67217e-137
445.000     9.75919e-140
446.000     2.45370e-142
447.000     5.83644e-145
448.000     1.31338e-147
449.000     2.79610e-150
450.000     5.63160e-153
451.000     1.07307e-155
452.000     1.93438e-158
453.000     3.29893e-161
454.000     5.32259e-164
455.000     8.12437e-167
456.000     1.17321e-169
457.000     1.60279e-172
458.000     2.07155e-175
459.000     2.53299e-178
460.000     2.93014e-181
461.000     3.20671e-184
462.000     3.32009e-187
463.000     3.25206e-190
464.000     3.01358e-193
465.000     2.64196e-196
466.000     2.19122e-199
467.000     1.71935e-202
468.000     1.27632e-205
469.000     8.96341e-209
470.000     5.95531e-212
471.000     3.74328e-215
472.000     2.22597e-218
473.000     1.25228e-221
474.000     6.66505e-225
475.000     3.35600e-228
476.000     1.59867e-231
477.000     7.20465e-235
478.000     3.07174e-238
479.000     1.23901e-241
480.000     4.72803e-245
481.000     1.70689e-248
482.000     5.82971e-252
483.000     1.88368e-255
484.000     5.75816e-259
485.000     1.66525e-262
486.000     4.55608e-266
487.000     1.17929e-269
488.000     2.88781e-273
489.000     6.69012e-277
490.000     1.46628e-280
491.000     3.04030e-284
492.000     5.96396e-288
493.000     1.10680e-291
494.000     1.94323e-295
495.000     3.22771e-299
496.000     5.07205e-303
497.000     7.54031e-307
498.000     1.06051e-310
499.000     1.41109e-314
500.000     1.77628e-318
