# Gaussian folded, width=10 cm^-1
# [cm^-1] arbitrary
0.000      3.00000e+00
1.000      2.91796e+00
2.000      2.68508e+00
3.000      2.33749e+00
4.000      1.92514e+00
5.000      1.50000e+00
6.000      1.10570e+00
7.000      7.71085e-01
8.000      5.08727e-01
9.000      3.17529e-01
10.000      1.87500e-01
11.000      1.04746e-01
12.000      5.53592e-02
13.000      2.76802e-02
14.000      1.30957e-02
15.000      5.86760e-03
16.000      2.50695e-03
17.000      1.07306e-03
18.000      6.04580e-04
19.000      7.55916e-04
20.000      1.64943e-03
21.000      3.94404e-03
22.000      9.14028e-03
23.000      2.01597e-02
24.000      4.22195e-02
25.000      8.39395e-02
26.000      1.58446e-01
27.000      2.83992e-01
28.000      4.83374e-01
29.000      7.81356e-01
30.000      1.19959e+00
31.000      1.74925e+00
32.000      2.42283e+00
33.000      3.18745e+00
34.000      3.98297e+00
35.000      4.72716e+00
36.000      5.32840e+00
37.000      5.70382e+00
38.000      5.79787e+00
39.000      5.59578e+00
40.000      5.12734e+00
41.000      4.45976e+00
42.000      3.68190e+00
43.000      2.88500e+00
44.000      2.14581e+00
45.000      1.51615e+00
46.000      1.02069e+00
47.000      6.61506e-01
48.000      4.26672e-01
49.000      2.99615e-01
50.000      2.66824e-01
51.000      3.22484e-01
52.000      4.69632e-01
53.000      7.17972e-01
54.000      1.07891e+00
55.000      1.55872e+00
56.000      2.15126e+00
57.000      2.83205e+00
58.000      3.55579e+00
59.000      4.25886e+00
60.000      4.86719e+00
61.000      5.30840e+00
62.000      5.52557e+00
63.000      5.48904e+00
64.000      5.20304e+00
65.000      4.70515e+00
66.000      4.05869e+00
67.000      3.34030e+00
68.000      2.62615e+00
69.000      1.98052e+00
70.000      1.44925e+00
71.000      1.05876e+00
72.000      8.19456e-01
73.000      7.31334e-01
74.000      7.89140e-01
75.000      9.85340e-01
76.000      1.31023e+00
77.000      1.74974e+00
78.000      2.28231e+00
79.000      2.87664e+00
80.000      3.49161e+00
81.000      4.07943e+00
82.000      4.59175e+00
83.000      4.98786e+00
84.000      5.24323e+00
85.000      5.35631e+00
86.000      5.35178e+00
87.000      5.27885e+00
88.000      5.20444e+00
89.000      5.20201e+00
90.000      5.33830e+00
91.000      5.66056e+00
92.000      6.18740e+00
93.000      6.90525e+00
94.000      7.77152e+00
95.000      8.72344e+00
96.000      9.69043e+00
97.000      1.06068e+01
98.000      1.14217e+01
99.000      1.21040e+01
100.000      1.26413e+01
101.000      1.30350e+01
102.000      1.32917e+01
103.000      1.34161e+01
104.000      1.34063e+01
105.000      1.32534e+01
106.000      1.29456e+01
107.000      1.24750e+01
108.000      1.18453e+01
109.000      1.10770e+01
110.000      1.02091e+01
111.000      9.29683e+00
112.000      8.40445e+00
113.000      7.59686e+00
114.000      6.93064e+00
115.000      6.44747e+00
116.000      6.17114e+00
117.000      6.10835e+00
118.000      6.25234e+00
119.000      6.58745e+00
120.000      7.09279e+00
121.000      7.74367e+00
122.000      8.51113e+00
123.000      9.36069e+00
124.000      1.02520e+01
125.000      1.11403e+01
126.000      1.19809e+01
127.000      1.27335e+01
128.000      1.33678e+01
129.000      1.38662e+01
130.000      1.42250e+01
131.000      1.44525e+01
132.000      1.45663e+01
133.000      1.45893e+01
134.000      1.45454e+01
135.000      1.44553e+01
136.000      1.43339e+01
137.000      1.41877e+01
138.000      1.40153e+01
139.000      1.38090e+01
140.000      1.35585e+01
141.000      1.32550e+01
142.000      1.28945e+01
143.000      1.24803e+01
144.000      1.20227e+01
145.000      1.15385e+01
146.000      1.10486e+01
147.000      1.05751e+01
148.000      1.01389e+01
149.000      9.75692e+00
150.000      9.43950e+00
151.000      9.18957e+00
152.000      9.00254e+00
153.000      8.86791e+00
154.000      8.77187e+00
155.000      8.69987e+00
156.000      8.63861e+00
157.000      8.57686e+00
158.000      8.50573e+00
159.000      8.41904e+00
160.000      8.31429e+00
161.000      8.19408e+00
162.000      8.06718e+00
163.000      7.94831e+00
164.000      7.85621e+00
165.000      7.81043e+00
166.000      7.82771e+00
167.000      7.91898e+00
168.000      8.08732e+00
169.000      8.32695e+00
170.000      8.62269e+00
171.000      8.95016e+00
172.000      9.27713e+00
173.000      9.56696e+00
174.000      9.78449e+00
175.000      9.90373e+00
176.000      9.91509e+00
177.000      9.82973e+00
178.000      9.67858e+00
179.000      9.50599e+00
180.000      9.35942e+00
181.000      9.27875e+00
182.000      9.28859e+00
183.000      9.39563e+00
184.000      9.59130e+00
185.000      9.85765e+00
186.000      1.01737e+01
187.000      1.05193e+01
188.000      1.08764e+01
189.000      1.12262e+01
190.000      1.15475e+01
191.000      1.18155e+01
192.000      1.20049e+01
193.000      1.20958e+01
194.000      1.20806e+01
195.000      1.19685e+01
196.000      1.17860e+01
197.000      1.15712e+01
198.000      1.13642e+01
199.000      1.11970e+01
200.000      1.10859e+01
201.000      1.10294e+01
202.000      1.10116e+01
203.000      1.10096e+01
204.000      1.10017e+01
205.000      1.09736e+01
206.000      1.09207e+01
207.000      1.08470e+01
208.000      1.07609e+01
209.000      1.06706e+01
210.000      1.05801e+01
211.000      1.04877e+01
212.000      1.03857e+01
213.000      1.02630e+01
214.000      1.01085e+01
215.000      9.91573e+00
216.000      9.68635e+00
217.000      9.43330e+00
218.000      9.18101e+00
219.000      8.96313e+00
220.000      8.81754e+00
221.000      8.77977e+00
222.000      8.87612e+00
223.000      9.11818e+00
224.000      9.49996e+00
225.000      9.99810e+00
226.000      1.05748e+01
227.000      1.11824e+01
228.000      1.17686e+01
229.000      1.22817e+01
230.000      1.26756e+01
231.000      1.29140e+01
232.000      1.29757e+01
233.000      1.28578e+01
234.000      1.25784e+01
235.000      1.21760e+01
236.000      1.17050e+01
237.000      1.12283e+01
238.000      1.08078e+01
239.000      1.04946e+01
240.000      1.03219e+01
241.000      1.03011e+01
242.000      1.04216e+01
243.000      1.06545e+01
244.000      1.09577e+01
245.000      1.12824e+01
246.000      1.15796e+01
247.000      1.18071e+01
248.000      1.19348e+01
249.000      1.19489e+01
250.000      1.18535e+01
251.000      1.16679e+01
252.000      1.14214e+01
253.000      1.11453e+01
254.000      1.08656e+01
255.000      1.05973e+01
256.000      1.03428e+01
257.000      1.00952e+01
258.000      9.84354e+00
259.000      9.57985e+00
260.000      9.30337e+00
261.000      9.02190e+00
262.000      8.74923e+00
263.000      8.50017e+00
264.000      8.28532e+00
265.000      8.10739e+00
266.000      7.96016e+00
267.000      7.82994e+00
268.000      7.69841e+00
269.000      7.54608e+00
270.000      7.35545e+00
271.000      7.11403e+00
272.000      6.81710e+00
273.000      6.47029e+00
274.000      6.09133e+00
275.000      5.71016e+00
276.000      5.36638e+00
277.000      5.10391e+00
278.000      4.96349e+00
279.000      4.97480e+00
280.000      5.15027e+00
281.000      5.48236e+00
282.000      5.94477e+00
283.000      6.49682e+00
284.000      7.08936e+00
285.000      7.67053e+00
286.000      8.19057e+00
287.000      8.60574e+00
288.000      8.88195e+00
289.000      8.99847e+00
290.000      8.95115e+00
291.000      8.75388e+00
292.000      8.43726e+00
293.000      8.04384e+00
294.000      7.62114e+00
295.000      7.21417e+00
296.000      6.85946e+00
297.000      6.58148e+00
298.000      6.39170e+00
299.000      6.28919e+00
300.000      6.26196e+00
301.000      6.28868e+00
302.000      6.34094e+00
303.000      6.38655e+00
304.000      6.39428e+00
305.000      6.33956e+00
306.000      6.21019e+00
307.000      6.01038e+00
308.000      5.76155e+00
309.000      5.49932e+00
310.000      5.26670e+00
311.000      5.10542e+00
312.000      5.04756e+00
313.000      5.11015e+00
314.000      5.29404e+00
315.000      5.58735e+00
316.000      5.97172e+00
317.000      6.42911e+00
318.000      6.94658e+00
319.000      7.51759e+00
320.000      8.13983e+00
321.000      8.81100e+00
322.000      9.52497e+00
323.000      1.02701e+01
324.000      1.10303e+01
325.000      1.17885e+01
326.000      1.25300e+01
327.000      1.32432e+01
328.000      1.39190e+01
329.000      1.45480e+01
330.000      1.51176e+01
331.000      1.56132e+01
332.000      1.60207e+01
333.000      1.63330e+01
334.000      1.65547e+01
335.000      1.67049e+01
336.000      1.68148e+01
337.000      1.69220e+01
338.000      1.70622e+01
339.000      1.72622e+01
340.000      1.75362e+01
341.000      1.78851e+01
342.000      1.82995e+01
343.000      1.87625e+01
344.000      1.92529e+01
345.000      1.97454e+01
346.000      2.02118e+01
347.000      2.06207e+01
348.000      2.09393e+01
349.000      2.11362e+01
350.000      2.11854e+01
351.000      2.10688e+01
352.000      2.07792e+01
353.000      2.03210e+01
354.000      1.97088e+01
355.000      1.89651e+01
356.000      1.81177e+01
357.000      1.71955e+01
358.000      1.62262e+01
359.000      1.52347e+01
360.000      1.42434e+01
361.000      1.32729e+01
362.000      1.23430e+01
363.000      1.14734e+01
364.000      1.06817e+01
365.000      9.98165e+00
366.000      9.38000e+00
367.000      8.87543e+00
368.000      8.45854e+00
369.000      8.11381e+00
370.000      7.82271e+00
371.000      7.56738e+00
372.000      7.33411e+00
373.000      7.11645e+00
374.000      6.91748e+00
375.000      6.75076e+00
376.000      6.63948e+00
377.000      6.61319e+00
378.000      6.70204e+00
379.000      6.92931e+00
380.000      7.30307e+00
381.000      7.80931e+00
382.000      8.40829e+00
383.000      9.03638e+00
384.000      9.61402e+00
385.000      1.00591e+01
386.000      1.03026e+01
387.000      1.03026e+01
388.000      1.00519e+01
389.000      9.57750e+00
390.000      8.93226e+00
391.000      8.18166e+00
392.000      7.39079e+00
393.000      6.61501e+00
394.000      5.89554e+00
395.000      5.25955e+00
396.000      4.72202e+00
397.000      4.28781e+00
398.000      3.95292e+00
399.000      3.70565e+00
400.000      3.52845e+00
401.000      3.40081e+00
402.000      3.30240e+00
403.000      3.21534e+00
404.000      3.12495e+00
405.000      3.01924e+00
406.000      2.88824e+00
407.000      2.72452e+00
408.000      2.52501e+00
409.000      2.29338e+00
410.000      2.04149e+00
411.000      1.78835e+00
412.000      1.55651e+00
413.000      1.36645e+00
414.000      1.23100e+00
415.000      1.15150e+00
416.000      1.11732e+00
417.000      1.10866e+00
418.000      1.10197e+00
419.000      1.07616e+00
420.000      1.01770e+00
421.000      9.23081e-01
422.000      7.98374e-01
423.000      6.56201e-01
424.000      5.11543e-01
425.000      3.77801e-01
426.000      2.64185e-01
427.000      1.74850e-01
428.000      1.09510e-01
429.000      6.48959e-02
430.000      3.63861e-02
431.000      1.93015e-02
432.000      9.68668e-03
433.000      4.59921e-03
434.000      2.06591e-03
435.000      8.77932e-04
436.000      3.52962e-04
437.000      1.34250e-04
438.000      4.83079e-05
439.000      1.64452e-05
440.000      5.29638e-06
441.000      1.61375e-06
442.000      4.65169e-07
443.000      1.26854e-07
444.000      3.27275e-08
445.000      7.98805e-09
446.000      1.84453e-09
447.000      4.02948e-10
448.000      8.32777e-11
449.000      1.62827e-11
450.000      3.01191e-12
451.000      5.27079e-13
452.000      8.72622e-14
453.000      1.36677e-14
454.000      2.02526e-15
455.000      2.83912e-16
456.000      3.76535e-17
457.000      4.72437e-18
458.000      5.60790e-19
459.000      6.29759e-20
460.000      6.69061e-21
461.000      6.72473e-22
462.000      6.39443e-23
463.000      5.75236e-24
464.000      4.89562e-25
465.000      3.94173e-26
466.000      3.00251e-27
467.000      2.16371e-28
468.000      1.47513e-29
469.000      9.51440e-31
470.000      5.80563e-32
471.000      3.35146e-33
472.000      1.83036e-34
473.000      9.45709e-36
474.000      4.62270e-37
475.000      2.13772e-38
476.000      9.35242e-40
477.000      3.87092e-41
478.000      1.51573e-42
479.000      5.61499e-44
480.000      1.96785e-45
481.000      6.52460e-47
482.000      2.04660e-48
483.000      6.07336e-50
484.000      1.70507e-51
485.000      4.52871e-53
486.000      1.13795e-54
487.000      2.70514e-56
488.000      6.08379e-58
489.000      1.29442e-59
490.000      2.60553e-61
491.000      4.96173e-63
492.000      8.93898e-65
493.000      1.52356e-66
494.000      2.45669e-68
495.000      3.74764e-70
496.000      5.40858e-72
497.000      7.38458e-74
498.000      9.53863e-76
499.000      1.16564e-77
500.000      1.34760e-79
