# Gaussian folded, width=10 cm^-1
# [cm^-1] arbitrary
0.000      3.00000e+00
1.000      2.91796e+00
2.000      2.68508e+00
3.000      2.33749e+00
4.000      1.92514e+00
5.000      1.50000e+00
6.000      1.10570e+00
7.000      7.71085e-01
8.000      5.08727e-01
9.000      3.17530e-01
10.000      1.87500e-01
11.000      1.04746e-01
12.000      5.53612e-02
13.000      2.76869e-02
14.000      1.31171e-02
15.000      5.93272e-03
16.000      2.69390e-03
17.000      1.58090e-03
18.000      1.90984e-03
19.000      3.92971e-03
20.000      8.94898e-03
21.000      1.98203e-02
22.000      4.17838e-02
23.000      8.35857e-02
24.000      1.58612e-01
25.000      2.85527e-01
26.000      4.87653e-01
27.000      7.90275e-01
28.000      1.21533e+00
29.000      1.77377e+00
30.000      2.45711e+00
31.000      3.23075e+00
32.000      4.03229e+00
33.000      4.77733e+00
34.000      5.37287e+00
35.000      5.73606e+00
36.000      5.81293e+00
37.000      5.59156e+00
38.000      5.10516e+00
39.000      4.42398e+00
40.000      3.63895e+00
41.000      2.84234e+00
42.000      2.11124e+00
43.000      1.49817e+00
44.000      1.02977e+00
45.000      7.12328e-01
46.000      5.40518e-01
47.000      5.06113e-01
48.000      6.03718e-01
49.000      8.32245e-01
50.000      1.19211e+00
51.000      1.67937e+00
52.000      2.27890e+00
53.000      2.95891e+00
54.000      3.66921e+00
55.000      4.34445e+00
56.000      4.91243e+00
57.000      5.30592e+00
58.000      5.47518e+00
59.000      5.39796e+00
60.000      5.08416e+00
61.000      4.57396e+00
62.000      3.92982e+00
63.000      3.22467e+00
64.000      2.52944e+00
65.000      1.90325e+00
66.000      1.38821e+00
67.000      1.00952e+00
68.000      7.79400e-01
69.000      7.02885e-01
70.000      7.82538e-01
71.000      1.02020e+00
72.000      1.41488e+00
73.000      1.95742e+00
74.000      2.62419e+00
75.000      3.37275e+00
76.000      4.14252e+00
77.000      4.86194e+00
78.000      5.46171e+00
79.000      5.89085e+00
80.000      6.13099e+00
81.000      6.20368e+00
82.000      6.16798e+00
83.000      6.10811e+00
84.000      6.11478e+00
85.000      6.26564e+00
86.000      6.61062e+00
87.000      7.16557e+00
88.000      7.91466e+00
89.000      8.81871e+00
90.000      9.82548e+00
91.000      1.08779e+01
92.000      1.19186e+01
93.000      1.28915e+01
94.000      1.37422e+01
95.000      1.44196e+01
96.000      1.48792e+01
97.000      1.50888e+01
98.000      1.50326e+01
99.000      1.47143e+01
100.000      1.41570e+01
101.000      1.34005e+01
102.000      1.24967e+01
103.000      1.15051e+01
104.000      1.04884e+01
105.000      9.50787e+00
106.000      8.62045e+00
107.000      7.87545e+00
108.000      7.31286e+00
109.000      6.96241e+00
110.000      6.84295e+00
111.000      6.96149e+00
112.000      7.31122e+00
113.000      7.86923e+00
114.000      8.59541e+00
115.000      9.43473e+00
116.000      1.03242e+01
117.000      1.12036e+01
118.000      1.20277e+01
119.000      1.27751e+01
120.000      1.34498e+01
121.000      1.40747e+01
122.000      1.46774e+01
123.000      1.52750e+01
124.000      1.58622e+01
125.000      1.64074e+01
126.000      1.68591e+01
127.000      1.71596e+01
128.000      1.72609e+01
129.000      1.71373e+01
130.000      1.67919e+01
131.000      1.62547e+01
132.000      1.55754e+01
133.000      1.48125e+01
134.000      1.40243e+01
135.000      1.32621e+01
136.000      1.25661e+01
137.000      1.19645e+01
138.000      1.14735e+01
139.000      1.10973e+01
140.000      1.08294e+01
141.000      1.06537e+01
142.000      1.05464e+01
143.000      1.04786e+01
144.000      1.04194e+01
145.000      1.03383e+01
146.000      1.02087e+01
147.000      1.00111e+01
148.000      9.73686e+00
149.000      9.39080e+00
150.000      8.99212e+00
151.000      8.57176e+00
152.000      8.16670e+00
153.000      7.81204e+00
154.000      7.53310e+00
155.000      7.33990e+00
156.000      7.22585e+00
157.000      7.17153e+00
158.000      7.15231e+00
159.000      7.14760e+00
160.000      7.14869e+00
161.000      7.16250e+00
162.000      7.21005e+00
163.000      7.32002e+00
164.000      7.51964e+00
165.000      7.82551e+00
166.000      8.23712e+00
167.000      8.73478e+00
168.000      9.28240e+00
169.000      9.83445e+00
170.000      1.03453e+01
171.000      1.07792e+01
172.000      1.11177e+01
173.000      1.13638e+01
174.000      1.15405e+01
175.000      1.16843e+01
176.000      1.18351e+01
177.000      1.20250e+01
178.000      1.22703e+01
179.000      1.25673e+01
180.000      1.28960e+01
181.000      1.32268e+01
182.000      1.35319e+01
183.000      1.37929e+01
184.000      1.40067e+01
185.000      1.41840e+01
186.000      1.43444e+01
187.000      1.45101e+01
188.000      1.46986e+01
189.000      1.49200e+01
190.000      1.51762e+01
191.000      1.54632e+01
192.000      1.57739e+01
193.000      1.61006e+01
194.000      1.64364e+01
195.000      1.67758e+01
196.000      1.71147e+01
197.000      1.74513e+01
198.000      1.77860e+01
199.000      1.81206e+01
200.000      1.84552e+01
201.000      1.87838e+01
202.000      1.90890e+01
203.000      1.93391e+01
204.000      1.94886e+01
205.000      1.94836e+01
206.000      1.92709e+01
207.000      1.88089e+01
208.000      1.80772e+01
209.000      1.70816e+01
210.000      1.58556e+01
211.000      1.44564e+01
212.000      1.29583e+01
213.000      1.14449e+01
214.000      1.00012e+01
215.000      8.70627e+00
216.000      7.62730e+00
217.000      6.81335e+00
218.000      6.29070e+00
219.000      6.05985e+00
220.000      6.09563e+00
221.000      6.35123e+00
222.000      6.76610e+00
223.000      7.27625e+00
224.000      7.82468e+00
225.000      8.36921e+00
226.000      8.88619e+00
227.000      9.36976e+00
228.000      9.82767e+00
229.000      1.02755e+01
230.000      1.07309e+01
231.000      1.12082e+01
232.000      1.17156e+01
233.000      1.22529e+01
234.000      1.28129e+01
235.000      1.33836e+01
236.000      1.39527e+01
237.000      1.45109e+01
238.000      1.50528e+01
239.000      1.55751e+01
240.000      1.60712e+01
241.000      1.65274e+01
242.000      1.69206e+01
243.000      1.72213e+01
244.000      1.74004e+01
245.000      1.74363e+01
246.000      1.73201e+01
247.000      1.70555e+01
248.000      1.66555e+01
249.000      1.61365e+01
250.000      1.55151e+01
251.000      1.48071e+01
252.000      1.40303e+01
253.000      1.32067e+01
254.000      1.23634e+01
255.000      1.15294e+01
256.000      1.07295e+01
257.000      9.97825e+00
258.000      9.27703e+00
259.000      8.61610e+00
260.000      7.98153e+00
261.000      7.36435e+00
262.000      6.76824e+00
263.000      6.21249e+00
264.000      5.72888e+00
265.000      5.35401e+00
266.000      5.12017e+00
267.000      5.04865e+00
268.000      5.14800e+00
269.000      5.41728e+00
270.000      5.85244e+00
271.000      6.45236e+00
272.000      7.22149e+00
273.000      8.16738e+00
274.000      9.29355e+00
275.000      1.05900e+01
276.000      1.20248e+01
277.000      1.35401e+01
278.000      1.50544e+01
279.000      1.64711e+01
280.000      1.76916e+01
281.000      1.86304e+01
282.000      1.92265e+01
283.000      1.94509e+01
284.000      1.93071e+01
285.000      1.88263e+01
286.000      1.80592e+01
287.000      1.70679e+01
288.000      1.59191e+01
289.000      1.46797e+01
290.000      1.34148e+01
291.000      1.21854e+01
292.000      1.10459e+01
293.000      1.00399e+01
294.000      9.19571e+00
295.000      8.52233e+00
296.000      8.00812e+00
297.000      7.62287e+00
298.000      7.32368e+00
299.000      7.06350e+00
300.000      6.80039e+00
301.000      6.50522e+00
302.000      6.16586e+00
303.000      5.78699e+00
304.000      5.38584e+00
305.000      4.98527e+00
306.000      4.60632e+00
307.000      4.26238e+00
308.000      3.95694e+00
309.000      3.68537e+00
310.000      3.44057e+00
311.000      3.22029e+00
312.000      3.03340e+00
313.000      2.90235e+00
314.000      2.86013e+00
315.000      2.94190e+00
316.000      3.17347e+00
317.000      3.56049e+00
318.000      4.08206e+00
319.000      4.69169e+00
320.000      5.32582e+00
321.000      5.91792e+00
322.000      6.41387e+00
323.000      6.78392e+00
324.000      7.02752e+00
325.000      7.17002e+00
326.000      7.25288e+00
327.000      7.32137e+00
328.000      7.41385e+00
329.000      7.55559e+00
330.000      7.75756e+00
331.000      8.01900e+00
332.000      8.33136e+00
333.000      8.68205e+00
334.000      9.05734e+00
335.000      9.44474e+00
336.000      9.83514e+00
337.000      1.02244e+01
338.000      1.06139e+01
339.000      1.10087e+01
340.000      1.14140e+01
341.000      1.18307e+01
342.000      1.22513e+01
343.000      1.26592e+01
344.000      1.30302e+01
345.000      1.33369e+01
346.000      1.35541e+01
347.000      1.36623e+01
348.000      1.36499e+01
349.000      1.35117e+01
350.000      1.32469e+01
351.000      1.28568e+01
352.000      1.23443e+01
353.000      1.17153e+01
354.000      1.09806e+01
355.000      1.01582e+01
356.000      9.27487e+00
357.000      8.36475e+00
358.000      7.46747e+00
359.000      6.62443e+00
360.000      5.87455e+00
361.000      5.24989e+00
362.000      4.77182e+00
363.000      4.44827e+00
364.000      4.27269e+00
365.000      4.22503e+00
366.000      4.27470e+00
367.000      4.38495e+00
368.000      4.51805e+00
369.000      4.64022e+00
370.000      4.72560e+00
371.000      4.75863e+00
372.000      4.73477e+00
373.000      4.65966e+00
374.000      4.54709e+00
375.000      4.41645e+00
376.000      4.29006e+00
377.000      4.19070e+00
378.000      4.13938e+00
379.000      4.15284e+00
380.000      4.24050e+00
381.000      4.40102e+00
382.000      4.61927e+00
383.000      4.86537e+00
384.000      5.09722e+00
385.000      5.26719e+00
386.000      5.33187e+00
387.000      5.26230e+00
388.000      5.05135e+00
389.000      4.71565e+00
390.000      4.29143e+00
391.000      3.82555e+00
392.000      3.36480e+00
393.000      2.94672e+00
394.000      2.59423e+00
395.000      2.31473e+00
396.000      2.10276e+00
397.000      1.94431e+00
398.000      1.82130e+00
399.000      1.71506e+00
400.000      1.60890e+00
401.000      1.49002e+00
402.000      1.35095e+00
403.000      1.19044e+00
404.000      1.01330e+00
405.000      8.29028e-01
406.000      6.49359e-01
407.000      4.85464e-01
408.000      3.45600e-01
409.000      2.33870e-01
410.000      1.50244e-01
411.000      9.15433e-02
412.000      5.28642e-02
413.000      2.89189e-02
414.000      1.49806e-02
415.000      7.34663e-03
416.000      3.41017e-03
417.000      1.49807e-03
418.000      6.22753e-04
419.000      2.44960e-04
420.000      9.11690e-05
421.000      3.21039e-05
422.000      1.06958e-05
423.000      3.37139e-06
424.000      1.00539e-06
425.000      2.83656e-07
426.000      7.57134e-08
427.000      1.91195e-08
428.000      4.56775e-09
429.000      1.03240e-09
430.000      2.20756e-10
431.000      4.46578e-11
432.000      8.54674e-12
433.000      1.54747e-12
434.000      2.65071e-13
435.000      4.29555e-14
436.000      6.58559e-15
437.000      9.55185e-16
438.000      1.31069e-16
439.000      1.70148e-17
440.000      2.08965e-18
441.000      2.42794e-19
442.000      2.66882e-20
443.000      2.77535e-21
444.000      2.73045e-22
445.000      2.54138e-23
446.000      2.23780e-24
447.000      1.86419e-25
448.000      1.46919e-26
449.000      1.09543e-27
450.000      7.72690e-29
451.000      5.15639e-30
452.000      3.25539e-31
453.000      1.94437e-32
454.000      1.09868e-33
455.000      5.87329e-35
456.000      2.97036e-36
457.000      1.42120e-37
458.000      6.43308e-39
459.000      2.75486e-40
460.000      1.11609e-41
461.000      4.27774e-43
462.000      1.55113e-44
463.000      5.32107e-46
464.000      1.72690e-47
465.000      5.30218e-49
466.000      1.54013e-50
467.000      4.23234e-52
468.000      1.10032e-53
469.000      2.70630e-55
470.000      6.29725e-57
471.000      1.38625e-58
472.000      2.88704e-60
473.000      5.68826e-62
474.000      1.06029e-63
475.000      1.86976e-65
476.000      3.11937e-67
477.000      4.92340e-69
478.000      7.35157e-71
479.000      1.03852e-72
480.000      1.38792e-74
481.000      1.75482e-76
482.000      2.09902e-78
483.000      2.37531e-80
484.000      2.54297e-82
485.000      2.57561e-84
486.000      2.46795e-86
487.000      2.23722e-88
488.000      1.91867e-90
489.000      1.55672e-92
490.000      1.19491e-94
491.000      8.67721e-97
492.000      5.96131e-99
493.000     3.87455e-101
494.000     2.38242e-103
495.000     1.38590e-105
496.000     7.62719e-108
497.000     3.97113e-110
498.000     1.95606e-112
499.000     9.11520e-115
500.000     4.01854e-117
