# Gaussian folded, width=10 cm^-1
# [cm^-1] arbitrary
0.000      3.00000e+00
1.000      2.91796e+00
2.000      2.68508e+00
3.000      2.33749e+00
4.000      1.92514e+00
5.000      1.50000e+00
6.000      1.10570e+00
7.000      7.71085e-01
8.000      5.08727e-01
9.000      3.17530e-01
10.000      1.87500e-01
11.000      1.04746e-01
12.000      5.53610e-02
13.000      2.76862e-02
14.000      1.31148e-02
15.000      5.92590e-03
16.000      2.67500e-03
17.000      1.53156e-03
18.000      1.78864e-03
19.000      3.64976e-03
20.000      8.34137e-03
21.000      1.85824e-02
22.000      3.94194e-02
23.000      7.93585e-02
24.000      1.51552e-01
25.000      2.74544e-01
26.000      4.71796e-01
27.000      7.69147e-01
28.000      1.18957e+00
29.000      1.74542e+00
30.000      2.42970e+00
31.000      3.20879e+00
32.000      4.02038e+00
33.000      4.77882e+00
34.000      5.38878e+00
35.000      5.76450e+00
36.000      5.84944e+00
37.000      5.63028e+00
38.000      5.14029e+00
39.000      4.45123e+00
40.000      3.65623e+00
41.000      2.84969e+00
42.000      2.11010e+00
43.000      1.49028e+00
44.000      1.01620e+00
45.000      6.92836e-01
46.000      5.13538e-01
47.000      4.69325e-01
48.000      5.55241e-01
49.000      7.72237e-01
50.000      1.12441e+00
51.000      1.61257e+00
52.000      2.22601e+00
53.000      2.93531e+00
54.000      3.68877e+00
55.000      4.41491e+00
56.000      5.03163e+00
57.000      5.46052e+00
58.000      5.64289e+00
59.000      5.55276e+00
60.000      5.20298e+00
61.000      4.64236e+00
62.000      3.94483e+00
63.000      3.19412e+00
64.000      2.46853e+00
65.000      1.82984e+00
66.000      1.31866e+00
67.000      9.55975e-01
68.000      7.48770e-01
69.000      6.96897e-01
70.000      7.98235e-01
71.000      1.05041e+00
72.000      1.44873e+00
73.000      1.98128e+00
74.000      2.62357e+00
75.000      3.33506e+00
76.000      4.06011e+00
77.000      4.73444e+00
78.000      5.29642e+00
79.000      5.70073e+00
80.000      5.93068e+00
81.000      6.00516e+00
82.000      5.97763e+00
83.000      5.92666e+00
84.000      5.94018e+00
85.000      6.09754e+00
86.000      6.45406e+00
87.000      7.03202e+00
88.000      7.81953e+00
89.000      8.77675e+00
90.000      9.84637e+00
91.000      1.09648e+01
92.000      1.20704e+01
93.000      1.31076e+01
94.000      1.40261e+01
95.000      1.47792e+01
96.000      1.53221e+01
97.000      1.56142e+01
98.000      1.56245e+01
99.000      1.53398e+01
100.000      1.47709e+01
101.000      1.39551e+01
102.000      1.29525e+01
103.000      1.18379e+01
104.000      1.06901e+01
105.000      9.58117e+00
106.000      8.57016e+00
107.000      7.70082e+00
108.000      7.00377e+00
109.000      6.50130e+00
110.000      6.21217e+00
111.000      6.15408e+00
112.000      6.34241e+00
113.000      6.78563e+00
114.000      7.47905e+00
115.000      8.39971e+00
116.000      9.50487e+00
117.000      1.07351e+01
118.000      1.20211e+01
119.000      1.32918e+01
120.000      1.44820e+01
121.000      1.55356e+01
122.000      1.64081e+01
123.000      1.70668e+01
124.000      1.74913e+01
125.000      1.76759e+01
126.000      1.76324e+01
127.000      1.73903e+01
128.000      1.69942e+01
129.000      1.64966e+01
130.000      1.59477e+01
131.000      1.53857e+01
132.000      1.48315e+01
133.000      1.42893e+01
134.000      1.37525e+01
135.000      1.32129e+01
136.000      1.26695e+01
137.000      1.21326e+01
138.000      1.16228e+01
139.000      1.11662e+01
140.000      1.07875e+01
141.000      1.05050e+01
142.000      1.03273e+01
143.000      1.02525e+01
144.000      1.02681e+01
145.000      1.03518e+01
146.000      1.04717e+01
147.000      1.05884e+01
148.000      1.06585e+01
149.000      1.06423e+01
150.000      1.05112e+01
151.000      1.02554e+01
152.000      9.88689e+00
153.000      9.43805e+00
154.000      8.95421e+00
155.000      8.48404e+00
156.000      8.06983e+00
157.000      7.74068e+00
158.000      7.50994e+00
159.000      7.37668e+00
160.000      7.32976e+00
161.000      7.35286e+00
162.000      7.42864e+00
163.000      7.54141e+00
164.000      7.67793e+00
165.000      7.82720e+00
166.000      7.97984e+00
167.000      8.12828e+00
168.000      8.26779e+00
169.000      8.39818e+00
170.000      8.52516e+00
171.000      8.66035e+00
172.000      8.81950e+00
173.000      9.01910e+00
174.000      9.27267e+00
175.000      9.58790e+00
176.000      9.96551e+00
177.000      1.03998e+01
178.000      1.08799e+01
179.000      1.13916e+01
180.000      1.19171e+01
181.000      1.24364e+01
182.000      1.29273e+01
183.000      1.33680e+01
184.000      1.37411e+01
185.000      1.40382e+01
186.000      1.42642e+01
187.000      1.44380e+01
188.000      1.45912e+01
189.000      1.47615e+01
190.000      1.49854e+01
191.000      1.52907e+01
192.000      1.56910e+01
193.000      1.61840e+01
194.000      1.67531e+01
195.000      1.73717e+01
196.000      1.80083e+01
197.000      1.86305e+01
198.000      1.92064e+01
199.000      1.97041e+01
200.000      2.00895e+01
201.000      2.03252e+01
202.000      2.03731e+01
203.000      2.02005e+01
204.000      1.97898e+01
205.000      1.91479e+01
206.000      1.83108e+01
207.000      1.73409e+01
208.000      1.63163e+01
209.000      1.53144e+01
210.000      1.43954e+01
211.000      1.35910e+01
212.000      1.29027e+01
213.000      1.23087e+01
214.000      1.17771e+01
215.000      1.12807e+01
216.000      1.08064e+01
217.000      1.03591e+01
218.000      9.95737e+00
219.000      9.62588e+00
220.000      9.38647e+00
221.000      9.25187e+00
222.000      9.22295e+00
223.000      9.28956e+00
224.000      9.43365e+00
225.000      9.63364e+00
226.000      9.86896e+00
227.000      1.01240e+01
228.000      1.03910e+01
229.000      1.06704e+01
230.000      1.09688e+01
231.000      1.12952e+01
232.000      1.16552e+01
233.000      1.20468e+01
234.000      1.24589e+01
235.000      1.28722e+01
236.000      1.32643e+01
237.000      1.36145e+01
238.000      1.39084e+01
239.000      1.41399e+01
240.000      1.43098e+01
241.000      1.44234e+01
242.000      1.44868e+01
243.000      1.45042e+01
244.000      1.44762e+01
245.000      1.43995e+01
246.000      1.42672e+01
247.000      1.40705e+01
248.000      1.38004e+01
249.000      1.34496e+01
250.000      1.30147e+01
251.000      1.24975e+01
252.000      1.19054e+01
253.000      1.12511e+01
254.000      1.05509e+01
255.000      9.82404e+00
256.000      9.09202e+00
257.000      8.37891e+00
258.000      7.71120e+00
259.000      7.11660e+00
260.000      6.62086e+00
261.000      6.24280e+00
262.000      5.98915e+00
263.000      5.85137e+00
264.000      5.80682e+00
265.000      5.82518e+00
266.000      5.87899e+00
267.000      5.95532e+00
268.000      6.06432e+00
269.000      6.24102e+00
270.000      6.53884e+00
271.000      7.01605e+00
272.000      7.71928e+00
273.000      8.66916e+00
274.000      9.85258e+00
275.000      1.12234e+01
276.000      1.27102e+01
277.000      1.42282e+01
278.000      1.56909e+01
279.000      1.70184e+01
280.000      1.81427e+01
281.000      1.90100e+01
282.000      1.95819e+01
283.000      1.98368e+01
284.000      1.97712e+01
285.000      1.94009e+01
286.000      1.87597e+01
287.000      1.78969e+01
288.000      1.68721e+01
289.000      1.57489e+01
290.000      1.45885e+01
291.000      1.34434e+01
292.000      1.23539e+01
293.000      1.13459e+01
294.000      1.04312e+01
295.000      9.61022e+00
296.000      8.87584e+00
297.000      8.21719e+00
298.000      7.62324e+00
299.000      7.08474e+00
300.000      6.59457e+00
301.000      6.14702e+00
302.000      5.73665e+00
303.000      5.35762e+00
304.000      5.00393e+00
305.000      4.67034e+00
306.000      4.35355e+00
307.000      4.05280e+00
308.000      3.76966e+00
309.000      3.50722e+00
310.000      3.26913e+00
311.000      3.05935e+00
312.000      2.88270e+00
313.000      2.74592e+00
314.000      2.65833e+00
315.000      2.63125e+00
316.000      2.67585e+00
317.000      2.80013e+00
318.000      3.00620e+00
319.000      3.28928e+00
320.000      3.63891e+00
321.000      4.04196e+00
322.000      4.48591e+00
323.000      4.96078e+00
324.000      5.45911e+00
325.000      5.97421e+00
326.000      6.49824e+00
327.000      7.02161e+00
328.000      7.53457e+00
329.000      8.03032e+00
330.000      8.50833e+00
331.000      8.97580e+00
332.000      9.44610e+00
333.000      9.93417e+00
334.000      1.04501e+01
335.000      1.09929e+01
336.000      1.15479e+01
337.000      1.20873e+01
338.000      1.25765e+01
339.000      1.29830e+01
340.000      1.32855e+01
341.000      1.34806e+01
342.000      1.35832e+01
343.000      1.36207e+01
344.000      1.36228e+01
345.000      1.36083e+01
346.000      1.35765e+01
347.000      1.35038e+01
348.000      1.33495e+01
349.000      1.30686e+01
350.000      1.26282e+01
351.000      1.20211e+01
352.000      1.12736e+01
353.000      1.04436e+01
354.000      9.60938e+00
355.000      8.85350e+00
356.000      8.24481e+00
357.000      7.82437e+00
358.000      7.59804e+00
359.000      7.53733e+00
360.000      7.58764e+00
361.000      7.68149e+00
362.000      7.75326e+00
363.000      7.75163e+00
364.000      7.64694e+00
365.000      7.43225e+00
366.000      7.11891e+00
367.000      6.72904e+00
368.000      6.28823e+00
369.000      5.82097e+00
370.000      5.34965e+00
371.000      4.89599e+00
372.000      4.48248e+00
373.000      4.13171e+00
374.000      3.86280e+00
375.000      3.68627e+00
376.000      3.59996e+00
377.000      3.58826e+00
378.000      3.62569e+00
379.000      3.68341e+00
380.000      3.73627e+00
381.000      3.76757e+00
382.000      3.77005e+00
383.000      3.74370e+00
384.000      3.69201e+00
385.000      3.61871e+00
386.000      3.52650e+00
387.000      3.41745e+00
388.000      3.29413e+00
389.000      3.16031e+00
390.000      3.02054e+00
391.000      2.87905e+00
392.000      2.73865e+00
393.000      2.60048e+00
394.000      2.46447e+00
395.000      2.33022e+00
396.000      2.19736e+00
397.000      2.06523e+00
398.000      1.93210e+00
399.000      1.79462e+00
400.000      1.64826e+00
401.000      1.48881e+00
402.000      1.31439e+00
403.000      1.12712e+00
404.000      9.33435e-01
405.000      7.42907e-01
406.000      5.65977e-01
407.000      4.11467e-01
408.000      2.84792e-01
409.000      1.87337e-01
410.000      1.16968e-01
411.000      6.92570e-02
412.000      3.88613e-02
413.000      2.06549e-02
414.000      1.03951e-02
415.000      4.95250e-03
416.000      2.23325e-03
417.000      9.53036e-04
418.000      3.84859e-04
419.000      1.47056e-04
420.000      5.31664e-05
421.000      1.81864e-05
422.000      5.88573e-06
423.000      1.80215e-06
424.000      5.22054e-07
425.000      1.43076e-07
426.000      3.70973e-08
427.000      9.09999e-09
428.000      2.11184e-09
429.000      4.63662e-10
430.000      9.63080e-11
431.000      1.89252e-11
432.000      3.51835e-12
433.000      6.18808e-13
434.000      1.02965e-13
435.000      1.62085e-14
436.000      2.41386e-15
437.000      3.40095e-16
438.000      4.53322e-17
439.000      5.71650e-18
440.000      6.81980e-19
441.000      7.69716e-20
442.000      8.21877e-21
443.000      8.30235e-22
444.000      7.93437e-23
445.000      7.17368e-24
446.000      6.13605e-25
447.000      4.96539e-26
448.000      3.80133e-27
449.000      2.75319e-28
450.000      1.88648e-29
451.000      1.22289e-30
452.000      7.49964e-32
453.000      4.35122e-33
454.000      2.38835e-34
455.000      1.24024e-35
456.000      6.09294e-37
457.000      2.83183e-38
458.000      1.24516e-39
459.000      5.17967e-41
460.000      2.03843e-42
461.000      7.58938e-44
462.000      2.67322e-45
463.000      8.90801e-47
464.000      2.80831e-48
465.000      8.37580e-50
466.000      2.36333e-51
467.000      6.30873e-53
468.000      1.59322e-54
469.000      3.80652e-56
470.000      8.60394e-58
471.000      1.83986e-59
472.000      3.72211e-61
473.000      7.12379e-63
474.000      1.28988e-64
475.000      2.20957e-66
476.000      3.58083e-68
477.000      5.49005e-70
478.000      7.96317e-72
479.000      1.09273e-73
480.000      1.41860e-75
481.000      1.74230e-77
482.000      2.02443e-79
483.000      2.22536e-81
484.000      2.31429e-83
485.000      2.27693e-85
486.000      2.11934e-87
487.000      1.86625e-89
488.000      1.55473e-91
489.000      1.22535e-93
490.000      9.13654e-96
491.000      6.44497e-98
492.000     4.30108e-100
493.000     2.71551e-102
494.000     1.62197e-104
495.000     9.16543e-107
496.000     4.89982e-109
497.000     2.47813e-111
498.000     1.18573e-113
499.000     5.36743e-116
500.000     2.29860e-118
