# Gaussian folded, width=10 cm^-1
# [cm^-1] arbitrary
0.000      3.00000e+00
1.000      2.91796e+00
2.000      2.68508e+00
3.000      2.33749e+00
4.000      1.92514e+00
5.000      1.50000e+00
6.000      1.10570e+00
7.000      7.71085e-01
8.000      5.08727e-01
9.000      3.17530e-01
10.000      1.87500e-01
11.000      1.04746e-01
12.000      5.53608e-02
13.000      2.76855e-02
14.000      1.31128e-02
15.000      5.92027e-03
16.000      2.66027e-03
17.000      1.49541e-03
18.000      1.70542e-03
19.000      3.47050e-03
20.000      7.98085e-03
21.000      1.79076e-02
22.000      3.82493e-02
23.000      7.74915e-02
24.000      1.48841e-01
25.000      2.71028e-01
26.000      4.67881e-01
27.000      7.65776e-01
28.000      1.18829e+00
29.000      1.74826e+00
30.000      2.43870e+00
31.000      3.22541e+00
32.000      4.04472e+00
33.000      4.80915e+00
34.000      5.42155e+00
35.000      5.79494e+00
36.000      5.87274e+00
37.000      5.64277e+00
38.000      5.14042e+00
39.000      4.43981e+00
40.000      3.63601e+00
41.000      2.82436e+00
42.000      2.08318e+00
43.000      1.46417e+00
44.000      9.91719e-01
45.000      6.69175e-01
46.000      4.88703e-01
47.000      4.40905e-01
48.000      5.21438e-01
49.000      7.33041e-01
50.000      1.08266e+00
51.000      1.57452e+00
52.000      2.20098e+00
53.000      2.93401e+00
54.000      3.72053e+00
55.000      4.48439e+00
56.000      5.13614e+00
57.000      5.58916e+00
58.000      5.77812e+00
59.000      5.67428e+00
60.000      5.29268e+00
61.000      4.68864e+00
62.000      3.94490e+00
63.000      3.15355e+00
64.000      2.39850e+00
65.000      1.74332e+00
66.000      1.22694e+00
67.000      8.66636e-01
68.000      6.65708e-01
69.000      6.22003e-01
70.000      7.34063e-01
71.000      1.00273e+00
72.000      1.42779e+00
73.000      2.00093e+00
74.000      2.69785e+00
75.000      3.47283e+00
76.000      4.25943e+00
77.000      4.97879e+00
78.000      5.55492e+00
79.000      5.93334e+00
80.000      6.09737e+00
81.000      6.07648e+00
82.000      5.94300e+00
83.000      5.79740e+00
84.000      5.74594e+00
85.000      5.87753e+00
86.000      6.24631e+00
87.000      6.86456e+00
88.000      7.70668e+00
89.000      8.72097e+00
90.000      9.84378e+00
91.000      1.10108e+01
92.000      1.21621e+01
93.000      1.32419e+01
94.000      1.41951e+01
95.000      1.49660e+01
96.000      1.55002e+01
97.000      1.57517e+01
98.000      1.56919e+01
99.000      1.53173e+01
100.000      1.46534e+01
101.000      1.37523e+01
102.000      1.26856e+01
103.000      1.15348e+01
104.000      1.03795e+01
105.000      9.28959e+00
106.000      8.31934e+00
107.000      7.50717e+00
108.000      6.87873e+00
109.000      6.45211e+00
110.000      6.24240e+00
111.000      6.26318e+00
112.000      6.52407e+00
113.000      7.02533e+00
114.000      7.75195e+00
115.000      8.67012e+00
116.000      9.72811e+00
117.000      1.08616e+01
118.000      1.20021e+01
119.000      1.30864e+01
120.000      1.40637e+01
121.000      1.48997e+01
122.000      1.55770e+01
123.000      1.60920e+01
124.000      1.64506e+01
125.000      1.66648e+01
126.000      1.67495e+01
127.000      1.67219e+01
128.000      1.66003e+01
129.000      1.64022e+01
130.000      1.61410e+01
131.000      1.58232e+01
132.000      1.54471e+01
133.000      1.50050e+01
134.000      1.44890e+01
135.000      1.38991e+01
136.000      1.32495e+01
137.000      1.25706e+01
138.000      1.19067e+01
139.000      1.13076e+01
140.000      1.08194e+01
141.000      1.04756e+01
142.000      1.02906e+01
143.000      1.02585e+01
144.000      1.03536e+01
145.000      1.05349e+01
146.000      1.07513e+01
147.000      1.09482e+01
148.000      1.10741e+01
149.000      1.10874e+01
150.000      1.09620e+01
151.000      1.06917e+01
152.000      1.02914e+01
153.000      9.79510e+00
154.000      9.25023e+00
155.000      8.70898e+00
156.000      8.21866e+00
157.000      7.81329e+00
158.000      7.50838e+00
159.000      7.30048e+00
160.000      7.17123e+00
161.000      7.09478e+00
162.000      7.04636e+00
163.000      7.00961e+00
164.000      6.98068e+00
165.000      6.96803e+00
166.000      6.98830e+00
167.000      7.05997e+00
168.000      7.19703e+00
169.000      7.40517e+00
170.000      7.68147e+00
171.000      8.01732e+00
172.000      8.40273e+00
173.000      8.82961e+00
174.000      9.29269e+00
175.000      9.78761e+00
176.000      1.03079e+01
177.000      1.08426e+01
178.000      1.13765e+01
179.000      1.18933e+01
180.000      1.23807e+01
181.000      1.28351e+01
182.000      1.32635e+01
183.000      1.36816e+01
184.000      1.41077e+01
185.000      1.45552e+01
186.000      1.50263e+01
187.000      1.55096e+01
188.000      1.59829e+01
189.000      1.64192e+01
190.000      1.67955e+01
191.000      1.70989e+01
192.000      1.73309e+01
193.000      1.75073e+01
194.000      1.76551e+01
195.000      1.78077e+01
196.000      1.79987e+01
197.000      1.82560e+01
198.000      1.85947e+01
199.000      1.90128e+01
200.000      1.94873e+01
201.000      1.99745e+01
202.000      2.04143e+01
203.000      2.07372e+01
204.000      2.08737e+01
205.000      2.07646e+01
206.000      2.03695e+01
207.000      1.96730e+01
208.000      1.86882e+01
209.000      1.74558e+01
210.000      1.60397e+01
211.000      1.45185e+01
212.000      1.29752e+01
213.000      1.14880e+01
214.000      1.01228e+01
215.000      8.93089e+00
216.000      7.94985e+00
217.000      7.20590e+00
218.000      6.71584e+00
219.000      6.48612e+00
220.000      6.50920e+00
221.000      6.75919e+00
222.000      7.18978e+00
223.000      7.73686e+00
224.000      8.32696e+00
225.000      8.88998e+00
226.000      9.37279e+00
227.000      9.74956e+00
228.000      1.00255e+01
229.000      1.02331e+01
230.000      1.04215e+01
231.000      1.06438e+01
232.000      1.09446e+01
233.000      1.13515e+01
234.000      1.18717e+01
235.000      1.24932e+01
236.000      1.31877e+01
237.000      1.39159e+01
238.000      1.46314e+01
239.000      1.52864e+01
240.000      1.58357e+01
241.000      1.62426e+01
242.000      1.64817e+01
243.000      1.65412e+01
244.000      1.64219e+01
245.000      1.61342e+01
246.000      1.56949e+01
247.000      1.51237e+01
248.000      1.44424e+01
249.000      1.36745e+01
250.000      1.28456e+01
251.000      1.19838e+01
252.000      1.11182e+01
253.000      1.02779e+01
254.000      9.49008e+00
255.000      8.77926e+00
256.000      8.16641e+00
257.000      7.66806e+00
258.000      7.29472e+00
259.000      7.04862e+00
260.000      6.92125e+00
261.000      6.89181e+00
262.000      6.92755e+00
263.000      6.98696e+00
264.000      7.02600e+00
265.000      7.00683e+00
266.000      6.90755e+00
267.000      6.73084e+00
268.000      6.50887e+00
269.000      6.30251e+00
270.000      6.19371e+00
271.000      6.27160e+00
272.000      6.61485e+00
273.000      7.27420e+00
274.000      8.25956e+00
275.000      9.53516e+00
276.000      1.10241e+01
277.000      1.26211e+01
278.000      1.42101e+01
279.000      1.56811e+01
280.000      1.69439e+01
281.000      1.79353e+01
282.000      1.86201e+01
283.000      1.89881e+01
284.000      1.90492e+01
285.000      1.88284e+01
286.000      1.83619e+01
287.000      1.76932e+01
288.000      1.68699e+01
289.000      1.59397e+01
290.000      1.49467e+01
291.000      1.39285e+01
292.000      1.29149e+01
293.000      1.19288e+01
294.000      1.09878e+01
295.000      1.01065e+01
296.000      9.29744e+00
297.000      8.57074e+00
298.000      7.93271e+00
299.000      7.38452e+00
300.000      6.92193e+00
301.000      6.53643e+00
302.000      6.21719e+00
303.000      5.95288e+00
304.000      5.73251e+00
305.000      5.54523e+00
306.000      5.37988e+00
307.000      5.22517e+00
308.000      5.07099e+00
309.000      4.91021e+00
310.000      4.74014e+00
311.000      4.56253e+00
312.000      4.38204e+00
313.000      4.20362e+00
314.000      4.02992e+00
315.000      3.85968e+00
316.000      3.68782e+00
317.000      3.50713e+00
318.000      3.31162e+00
319.000      3.10076e+00
320.000      2.88362e+00
321.000      2.68169e+00
322.000      2.52925e+00
323.000      2.47045e+00
324.000      2.55333e+00
325.000      2.82193e+00
326.000      3.30801e+00
327.000      4.02429e+00
328.000      4.96063e+00
329.000      6.08386e+00
330.000      7.34136e+00
331.000      8.66761e+00
332.000      9.99227e+00
333.000      1.12482e+01
334.000      1.23779e+01
335.000      1.33368e+01
336.000      1.40940e+01
337.000      1.46321e+01
338.000      1.49456e+01
339.000      1.50417e+01
340.000      1.49413e+01
341.000      1.46798e+01
342.000      1.43056e+01
343.000      1.38745e+01
344.000      1.34409e+01
345.000      1.30483e+01
346.000      1.27213e+01
347.000      1.24623e+01
348.000      1.22537e+01
349.000      1.20631e+01
350.000      1.18515e+01
351.000      1.15814e+01
352.000      1.12234e+01
353.000      1.07623e+01
354.000      1.02009e+01
355.000      9.56049e+00
356.000      8.87890e+00
357.000      8.20391e+00
358.000      7.58414e+00
359.000      7.05916e+00
360.000      6.65163e+00
361.000      6.36400e+00
362.000      6.18047e+00
363.000      6.07354e+00
364.000      6.01232e+00
365.000      5.96982e+00
366.000      5.92672e+00
367.000      5.87108e+00
368.000      5.79514e+00
369.000      5.69182e+00
370.000      5.55309e+00
371.000      5.37130e+00
372.000      5.14278e+00
373.000      4.87185e+00
374.000      4.57296e+00
375.000      4.27000e+00
376.000      3.99275e+00
377.000      3.77175e+00
378.000      3.63291e+00
379.000      3.59312e+00
380.000      3.65700e+00
381.000      3.81520e+00
382.000      4.04409e+00
383.000      4.30746e+00
384.000      4.56056e+00
385.000      4.75652e+00
386.000      4.85430e+00
387.000      4.82638e+00
388.000      4.66402e+00
389.000      4.37857e+00
390.000      3.99843e+00
391.000      3.56266e+00
392.000      3.11325e+00
393.000      2.68792e+00
394.000      2.31479e+00
395.000      2.00945e+00
396.000      1.77430e+00
397.000      1.60009e+00
398.000      1.46917e+00
399.000      1.36013e+00
400.000      1.25290e+00
401.000      1.13326e+00
402.000      9.95326e-01
403.000      8.41736e-01
404.000      6.81366e-01
405.000      5.25814e-01
406.000      3.85809e-01
407.000      2.68685e-01
408.000      1.77399e-01
409.000      1.10962e-01
410.000      6.57212e-02
411.000      3.68476e-02
412.000      1.95523e-02
413.000      9.81773e-03
414.000      4.66460e-03
415.000      2.09692e-03
416.000      8.91860e-04
417.000      3.58881e-04
418.000      1.36626e-04
419.000      4.92090e-05
420.000      1.67679e-05
421.000      5.40546e-06
422.000      1.64857e-06
423.000      4.75666e-07
424.000      1.29842e-07
425.000      3.35309e-08
426.000      8.19209e-09
427.000      1.89348e-09
428.000      4.14044e-10
429.000      8.56543e-11
430.000      1.67637e-11
431.000      3.10390e-12
432.000      5.43705e-13
433.000      9.01024e-14
434.000      1.41263e-14
435.000      2.09525e-15
436.000      2.94009e-16
437.000      3.90306e-17
438.000      4.90192e-18
439.000      5.82432e-19
440.000      6.54699e-20
441.000      6.96234e-21
442.000      7.00466e-22
443.000      6.66709e-23
444.000      6.00348e-24
445.000      5.11432e-25
446.000      4.12183e-26
447.000      3.14275e-27
448.000      2.26697e-28
449.000      1.54704e-29
450.000      9.98789e-31
451.000      6.10048e-32
452.000      3.52510e-33
453.000      1.92707e-34
454.000      9.96643e-36
455.000      4.87641e-37
456.000      2.25724e-38
457.000      9.88493e-40
458.000      4.09531e-41
459.000      1.60516e-42
460.000      5.95204e-44
461.000      2.08801e-45
462.000      6.92972e-47
463.000      2.17579e-48
464.000      6.46302e-50
465.000      1.81624e-51
466.000      4.82866e-53
467.000      1.21450e-54
468.000      2.88993e-56
469.000      6.50570e-58
470.000      1.38554e-59
471.000      2.79165e-61
472.000      5.32133e-63
473.000      9.59616e-65
474.000      1.63716e-66
475.000      2.64244e-68
476.000      4.03492e-70
477.000      5.82884e-72
478.000      7.96613e-74
479.000      1.02998e-75
480.000      1.25988e-77
481.000      1.45797e-79
482.000      1.59619e-81
483.000      1.65325e-83
484.000      1.61998e-85
485.000      1.50175e-87
486.000      1.31705e-89
487.000      1.09276e-91
488.000      8.57764e-94
489.000      6.36981e-96
490.000      4.47510e-98
491.000     2.97439e-100
492.000     1.87029e-102
493.000     1.11260e-104
494.000     6.26159e-107
495.000     3.33388e-109
496.000     1.67931e-111
497.000     8.00260e-114
498.000     3.60785e-116
499.000     1.53880e-118
500.000     6.20920e-121
