# Gaussian folded, width=10 cm^-1
# [cm^-1] arbitrary
0.000      3.00000e+00
1.000      2.91796e+00
2.000      2.68508e+00
3.000      2.33749e+00
4.000      1.92514e+00
5.000      1.50000e+00
6.000      1.10570e+00
7.000      7.71085e-01
8.000      5.08727e-01
9.000      3.17529e-01
10.000      1.87500e-01
11.000      1.04746e-01
12.000      5.53592e-02
13.000      2.76800e-02
14.000      1.30950e-02
15.000      5.86563e-03
16.000      2.50121e-03
17.000      1.05733e-03
18.000      5.64063e-04
19.000      6.57880e-04
20.000      1.42684e-03
21.000      3.47041e-03
22.000      8.19747e-03
23.000      1.84078e-02
24.000      3.91895e-02
25.000      7.90816e-02
26.000      1.51268e-01
27.000      2.74304e-01
28.000      4.71608e-01
29.000      7.68852e-01
30.000      1.18869e+00
31.000      1.74304e+00
32.000      2.42443e+00
33.000      3.19905e+00
34.000      4.00481e+00
35.000      4.75702e+00
36.000      5.36187e+00
37.000      5.73528e+00
38.000      5.82206e+00
39.000      5.60921e+00
40.000      5.12912e+00
41.000      4.45152e+00
42.000      3.66693e+00
43.000      2.86710e+00
44.000      2.12809e+00
45.000      1.50040e+00
46.000      1.00707e+00
47.000      6.48678e-01
48.000      4.11993e-01
49.000      2.79473e-01
50.000      2.37071e-01
51.000      2.79202e-01
52.000      4.10376e-01
53.000      6.43458e-01
54.000      9.94741e-01
55.000      1.47638e+00
56.000      2.08748e+00
57.000      2.80594e+00
58.000      3.58396e+00
59.000      4.34979e+00
60.000      5.01688e+00
61.000      5.49927e+00
62.000      5.72964e+00
63.000      5.67464e+00
64.000      5.34291e+00
65.000      4.78304e+00
66.000      4.07232e+00
67.000      3.30008e+00
68.000      2.55059e+00
69.000      1.89044e+00
70.000      1.36273e+00
71.000      9.88074e-01
72.000      7.70184e-01
73.000      7.03105e-01
74.000      7.77247e-01
75.000      9.82653e-01
76.000      1.30915e+00
77.000      1.74404e+00
78.000      2.26871e+00
79.000      2.85551e+00
80.000      3.46652e+00
81.000      4.05511e+00
82.000      4.57094e+00
83.000      4.96800e+00
84.000      5.21427e+00
85.000      5.30094e+00
86.000      5.24828e+00
87.000      5.10602e+00
88.000      4.94723e+00
89.000      4.85623e+00
90.000      4.91313e+00
91.000      5.17847e+00
92.000      5.68175e+00
93.000      6.41664e+00
94.000      7.34373e+00
95.000      8.39987e+00
96.000      9.51095e+00
97.000      1.06048e+01
98.000      1.16209e+01
99.000      1.25152e+01
100.000      1.32595e+01
101.000      1.38367e+01
102.000      1.42352e+01
103.000      1.44427e+01
104.000      1.44446e+01
105.000      1.42264e+01
106.000      1.37797e+01
107.000      1.31116e+01
108.000      1.22504e+01
109.000      1.12486e+01
110.000      1.01774e+01
111.000      9.11662e+00
112.000      8.14155e+00
113.000      7.31130e+00
114.000      6.66251e+00
115.000      6.20962e+00
116.000      5.95094e+00
117.000      5.87746e+00
118.000      5.98067e+00
119.000      6.25631e+00
120.000      6.70267e+00
121.000      7.31451e+00
122.000      8.07542e+00
123.000      8.95240e+00
124.000      9.89559e+00
125.000      1.08443e+01
126.000      1.17375e+01
127.000      1.25261e+01
128.000      1.31814e+01
129.000      1.36980e+01
130.000      1.40899e+01
131.000      1.43811e+01
132.000      1.45952e+01
133.000      1.47477e+01
134.000      1.48433e+01
135.000      1.48782e+01
136.000      1.48455e+01
137.000      1.47408e+01
138.000      1.45647e+01
139.000      1.43236e+01
140.000      1.40264e+01
141.000      1.36824e+01
142.000      1.32992e+01
143.000      1.28832e+01
144.000      1.24417e+01
145.000      1.19845e+01
146.000      1.15250e+01
147.000      1.10787e+01
148.000      1.06598e+01
149.000      1.02778e+01
150.000      9.93405e+00
151.000      9.62100e+00
152.000      9.32408e+00
153.000      9.02638e+00
154.000      8.71507e+00
155.000      8.38773e+00
156.000      8.05649e+00
157.000      7.74788e+00
158.000      7.49765e+00
159.000      7.34154e+00
160.000      7.30461e+00
161.000      7.39282e+00
162.000      7.58983e+00
163.000      7.86050e+00
164.000      8.16002e+00
165.000      8.44549e+00
166.000      8.68617e+00
167.000      8.86912e+00
168.000      8.99883e+00
169.000      9.09147e+00
170.000      9.16644e+00
171.000      9.23821e+00
172.000      9.31106e+00
173.000      9.37834e+00
174.000      9.42565e+00
175.000      9.43697e+00
176.000      9.40118e+00
177.000      9.31726e+00
178.000      9.19619e+00
179.000      9.05910e+00
180.000      8.93192e+00
181.000      8.83840e+00
182.000      8.79381e+00
183.000      8.80205e+00
184.000      8.85750e+00
185.000      8.95124e+00
186.000      9.07900e+00
187.000      9.24717e+00
188.000      9.47360e+00
189.000      9.78213e+00
190.000      1.01926e+01
191.000      1.07100e+01
192.000      1.13175e+01
193.000      1.19756e+01
194.000      1.26284e+01
195.000      1.32147e+01
196.000      1.36801e+01
197.000      1.39870e+01
198.000      1.41204e+01
199.000      1.40885e+01
200.000      1.39192e+01
201.000      1.36534e+01
202.000      1.33364e+01
203.000      1.30093e+01
204.000      1.27011e+01
205.000      1.24245e+01
206.000      1.21749e+01
207.000      1.19346e+01
208.000      1.16797e+01
209.000      1.13884e+01
210.000      1.10479e+01
211.000      1.06581e+01
212.000      1.02322e+01
213.000      9.79334e+00
214.000      9.37013e+00
215.000      8.99176e+00
216.000      8.68403e+00
217.000      8.46649e+00
218.000      8.35069e+00
219.000      8.33875e+00
220.000      8.42233e+00
221.000      8.58245e+00
222.000      8.79133e+00
223.000      9.01712e+00
224.000      9.23115e+00
225.000      9.41612e+00
226.000      9.57192e+00
227.000      9.71667e+00
228.000      9.88147e+00
229.000      1.01003e+01
230.000      1.03987e+01
231.000      1.07847e+01
232.000      1.12448e+01
233.000      1.17468e+01
234.000      1.22455e+01
235.000      1.26909e+01
236.000      1.30360e+01
237.000      1.32423e+01
238.000      1.32845e+01
239.000      1.31532e+01
240.000      1.28567e+01
241.000      1.24205e+01
242.000      1.18856e+01
243.000      1.13030e+01
244.000      1.07270e+01
245.000      1.02066e+01
246.000      9.77817e+00
247.000      9.46003e+00
248.000      9.25049e+00
249.000      9.13023e+00
250.000      9.06841e+00
251.000      9.03114e+00
252.000      8.99025e+00
253.000      8.93007e+00
254.000      8.85018e+00
255.000      8.76368e+00
256.000      8.69154e+00
257.000      8.65489e+00
258.000      8.66781e+00
259.000      8.73245e+00
260.000      8.83771e+00
261.000      8.96142e+00
262.000      9.07513e+00
263.000      9.14992e+00
264.000      9.16184e+00
265.000      9.09541e+00
266.000      8.94465e+00
267.000      8.71159e+00
268.000      8.40332e+00
269.000      8.02926e+00
270.000      7.60013e+00
271.000      7.12908e+00
272.000      6.63411e+00
273.000      6.13987e+00
274.000      5.67730e+00
275.000      5.28008e+00
276.000      4.97933e+00
277.000      4.79816e+00
278.000      4.74830e+00
279.000      4.82965e+00
280.000      5.03226e+00
281.000      5.33911e+00
282.000      5.72845e+00
283.000      6.17476e+00
284.000      6.64894e+00
285.000      7.11871e+00
286.000      7.55019e+00
287.000      7.91112e+00
288.000      8.17533e+00
289.000      8.32717e+00
290.000      8.36489e+00
291.000      8.30126e+00
292.000      8.16116e+00
293.000      7.97594e+00
294.000      7.77587e+00
295.000      7.58263e+00
296.000      7.40399e+00
297.000      7.23260e+00
298.000      7.04945e+00
299.000      6.83133e+00
300.000      6.55992e+00
301.000      6.22988e+00
302.000      5.85319e+00
303.000      5.45847e+00
304.000      5.08538e+00
305.000      4.77594e+00
306.000      4.56575e+00
307.000      4.47745e+00
308.000      4.51820e+00
309.000      4.68135e+00
310.000      4.95100e+00
311.000      5.30758e+00
312.000      5.73244e+00
313.000      6.21004e+00
314.000      6.72754e+00
315.000      7.27262e+00
316.000      7.83096e+00
317.000      8.38521e+00
318.000      8.91615e+00
319.000      9.40585e+00
320.000      9.84150e+00
321.000      1.02184e+01
322.000      1.05411e+01
323.000      1.08223e+01
324.000      1.10809e+01
325.000      1.13395e+01
326.000      1.16218e+01
327.000      1.19507e+01
328.000      1.23457e+01
329.000      1.28211e+01
330.000      1.33835e+01
331.000      1.40315e+01
332.000      1.47553e+01
333.000      1.55389e+01
334.000      1.63619e+01
335.000      1.72018e+01
336.000      1.80354e+01
337.000      1.88398e+01
338.000      1.95931e+01
339.000      2.02748e+01
340.000      2.08668e+01
341.000      2.13539e+01
342.000      2.17248e+01
343.000      2.19715e+01
344.000      2.20903e+01
345.000      2.20810e+01
346.000      2.19475e+01
347.000      2.16978e+01
348.000      2.13446e+01
349.000      2.09047e+01
350.000      2.03971e+01
351.000      1.98414e+01
352.000      1.92536e+01
353.000      1.86444e+01
354.000      1.80181e+01
355.000      1.73742e+01
356.000      1.67105e+01
357.000      1.60271e+01
358.000      1.53287e+01
359.000      1.46247e+01
360.000      1.39275e+01
361.000      1.32489e+01
362.000      1.25972e+01
363.000      1.19764e+01
364.000      1.13866e+01
365.000      1.08266e+01
366.000      1.02952e+01
367.000      9.79280e+00
368.000      9.32007e+00
369.000      8.87758e+00
370.000      8.46473e+00
371.000      8.08012e+00
372.000      7.72294e+00
373.000      7.39498e+00
374.000      7.10240e+00
375.000      6.85653e+00
376.000      6.67333e+00
377.000      6.57152e+00
378.000      6.56989e+00
379.000      6.68403e+00
380.000      6.92295e+00
381.000      7.28550e+00
382.000      7.75658e+00
383.000      8.30379e+00
384.000      8.87569e+00
385.000      9.40360e+00
386.000      9.80864e+00
387.000      1.00143e+01
388.000      9.96277e+00
389.000      9.62982e+00
390.000      9.03447e+00
391.000      8.23787e+00
392.000      7.33145e+00
393.000      6.41712e+00
394.000      5.58534e+00
395.000      4.89793e+00
396.000      4.38008e+00
397.000      4.02285e+00
398.000      3.79369e+00
399.000      3.65017e+00
400.000      3.55216e+00
401.000      3.46917e+00
402.000      3.38221e+00
403.000      3.28158e+00
404.000      3.16299e+00
405.000      3.02447e+00
406.000      2.86513e+00
407.000      2.68581e+00
408.000      2.49052e+00
409.000      2.28726e+00
410.000      2.08726e+00
411.000      1.90239e+00
412.000      1.74158e+00
413.000      1.60767e+00
414.000      1.49609e+00
415.000      1.39612e+00
416.000      1.29450e+00
417.000      1.17982e+00
418.000      1.04632e+00
419.000      8.95388e-01
420.000      7.34731e-01
421.000      5.75541e-01
422.000      4.29068e-01
423.000      3.03801e-01
424.000      2.04023e-01
425.000      1.29840e-01
426.000      7.82580e-02
427.000      4.46555e-02
428.000      2.41179e-02
429.000      1.23269e-02
430.000      5.96172e-03
431.000      2.72812e-03
432.000      1.18116e-03
433.000      4.83837e-04
434.000      1.87508e-04
435.000      6.87497e-05
436.000      2.38477e-05
437.000      7.82605e-06
438.000      2.42974e-06
439.000      7.13668e-07
440.000      1.98313e-07
441.000      5.21346e-08
442.000      1.29664e-08
443.000      3.05091e-09
444.000      6.79137e-10
445.000      1.43022e-10
446.000      2.84949e-11
447.000      5.37091e-12
448.000      9.57738e-13
449.000      1.61571e-13
450.000      2.57868e-14
451.000      3.89358e-15
452.000      5.56184e-16
453.000      7.51633e-17
454.000      9.60971e-18
455.000      1.16234e-18
456.000      1.33006e-19
457.000      1.43989e-20
458.000      1.47470e-21
459.000      1.42889e-22
460.000      1.30981e-23
461.000      1.13589e-24
462.000      9.31925e-26
463.000      7.23342e-27
464.000      5.31159e-28
465.000      3.68997e-29
466.000      2.42515e-30
467.000      1.50790e-31
468.000      8.86998e-33
469.000      4.93619e-34
470.000      2.59883e-35
471.000      1.29444e-36
472.000      6.09962e-38
473.000      2.71921e-39
474.000      1.14683e-40
475.000      4.57586e-42
476.000      1.72729e-43
477.000      6.16842e-45
478.000      2.08402e-46
479.000      6.66110e-48
480.000      2.01422e-49
481.000      5.76219e-51
482.000      1.55950e-52
483.000      3.99301e-54
484.000      9.67237e-56
485.000      2.21658e-57
486.000      4.80564e-59
487.000      9.85681e-61
488.000      1.91267e-62
489.000      3.51123e-64
490.000      6.09815e-66
491.000      1.00197e-67
492.000      1.55750e-69
493.000      2.29044e-71
494.000      3.18660e-73
495.000      4.19424e-75
496.000      5.22272e-77
497.000      6.15260e-79
498.000      6.85705e-81
499.000      7.22993e-83
500.000      7.21188e-85
