# Gaussian folded, width=10 cm^-1
# [cm^-1] arbitrary
0.000      3.00000e+00
1.000      2.91796e+00
2.000      2.68508e+00
3.000      2.33749e+00
4.000      1.92514e+00
5.000      1.50000e+00
6.000      1.10570e+00
7.000      7.71085e-01
8.000      5.08727e-01
9.000      3.17530e-01
10.000      1.87500e-01
11.000      1.04746e-01
12.000      5.53606e-02
13.000      2.76850e-02
14.000      1.31114e-02
15.000      5.91655e-03
16.000      2.65057e-03
17.000      1.47164e-03
18.000      1.65077e-03
19.000      3.35255e-03
20.000      7.74230e-03
21.000      1.74561e-02
22.000      3.74510e-02
23.000      7.61763e-02
24.000      1.46828e-01
25.000      2.68178e-01
26.000      4.64175e-01
27.000      7.61388e-01
28.000      1.18364e+00
29.000      1.74398e+00
30.000      2.43554e+00
31.000      3.22403e+00
32.000      4.04546e+00
33.000      4.81193e+00
34.000      5.42584e+00
35.000      5.79992e+00
36.000      5.87753e+00
37.000      5.64669e+00
38.000      5.14314e+00
39.000      4.44133e+00
40.000      3.63653e+00
41.000      2.82411e+00
42.000      2.08218e+00
43.000      1.46215e+00
44.000      9.88042e-01
45.000      6.62922e-01
46.000      4.78866e-01
47.000      4.26731e-01
48.000      5.02916e-01
49.000      7.11413e-01
50.000      1.06077e+00
51.000      1.55670e+00
52.000      2.19230e+00
53.000      2.93897e+00
54.000      3.74142e+00
55.000      4.52007e+00
56.000      5.18176e+00
57.000      5.63715e+00
58.000      5.82022e+00
59.000      5.70391e+00
60.000      5.30668e+00
61.000      4.68795e+00
62.000      3.93393e+00
63.000      3.13889e+00
64.000      2.38747e+00
65.000      1.74296e+00
66.000      1.24353e+00
67.000      9.05328e-01
68.000      7.29721e-01
69.000      7.10943e-01
70.000      8.41475e-01
71.000      1.11369e+00
72.000      1.51794e+00
73.000      2.03855e+00
74.000      2.64962e+00
75.000      3.31287e+00
76.000      3.97891e+00
77.000      4.59273e+00
78.000      5.10260e+00
79.000      5.47084e+00
80.000      5.68378e+00
81.000      5.75800e+00
82.000      5.74063e+00
83.000      5.70249e+00
84.000      5.72529e+00
85.000      5.88575e+00
86.000      6.24087e+00
87.000      6.81844e+00
88.000      7.61484e+00
89.000      8.59987e+00
90.000      9.72548e+00
91.000      1.09345e+01
92.000      1.21664e+01
93.000      1.33582e+01
94.000      1.44438e+01
95.000      1.53530e+01
96.000      1.60150e+01
97.000      1.63655e+01
98.000      1.63581e+01
99.000      1.59750e+01
100.000      1.52351e+01
101.000      1.41948e+01
102.000      1.29424e+01
103.000      1.15855e+01
104.000      1.02353e+01
105.000      8.99003e+00
106.000      7.92349e+00
107.000      7.07961e+00
108.000      6.47515e+00
109.000      6.10804e+00
110.000      5.96790e+00
111.000      6.04447e+00
112.000      6.33110e+00
113.000      6.82308e+00
114.000      7.51258e+00
115.000      8.38340e+00
116.000      9.40790e+00
117.000      1.05473e+01
118.000      1.17545e+01
119.000      1.29784e+01
120.000      1.41676e+01
121.000      1.52733e+01
122.000      1.62504e+01
123.000      1.70589e+01
124.000      1.76651e+01
125.000      1.80434e+01
126.000      1.81797e+01
127.000      1.80752e+01
128.000      1.77484e+01
129.000      1.72356e+01
130.000      1.65870e+01
131.000      1.58596e+01
132.000      1.51083e+01
133.000      1.43782e+01
134.000      1.36995e+01
135.000      1.30875e+01
136.000      1.25463e+01
137.000      1.20748e+01
138.000      1.16728e+01
139.000      1.13443e+01
140.000      1.10968e+01
141.000      1.09375e+01
142.000      1.08665e+01
143.000      1.08710e+01
144.000      1.09234e+01
145.000      1.09831e+01
146.000      1.10047e+01
147.000      1.09484e+01
148.000      1.07902e+01
149.000      1.05284e+01
150.000      1.01830e+01
151.000      9.79052e+00
152.000      9.39293e+00
153.000      9.02598e+00
154.000      8.70968e+00
155.000      8.44414e+00
156.000      8.21207e+00
157.000      7.98750e+00
158.000      7.74784e+00
159.000      7.48501e+00
160.000      7.21145e+00
161.000      6.95848e+00
162.000      6.76718e+00
163.000      6.67527e+00
164.000      6.70476e+00
165.000      6.85503e+00
166.000      7.10369e+00
167.000      7.41462e+00
168.000      7.74983e+00
169.000      8.08083e+00
170.000      8.39565e+00
171.000      8.69976e+00
172.000      9.01125e+00
173.000      9.35266e+00
174.000      9.74250e+00
175.000      1.01891e+01
176.000      1.06883e+01
177.000      1.12251e+01
178.000      1.17780e+01
179.000      1.23242e+01
180.000      1.28443e+01
181.000      1.33251e+01
182.000      1.37602e+01
183.000      1.41481e+01
184.000      1.44904e+01
185.000      1.47892e+01
186.000      1.50456e+01
187.000      1.52601e+01
188.000      1.54342e+01
189.000      1.55729e+01
190.000      1.56863e+01
191.000      1.57897e+01
192.000      1.59016e+01
193.000      1.60399e+01
194.000      1.62176e+01
195.000      1.64393e+01
196.000      1.66993e+01
197.000      1.69826e+01
198.000      1.72680e+01
199.000      1.75319e+01
200.000      1.77526e+01
201.000      1.79127e+01
202.000      1.79994e+01
203.000      1.80020e+01
204.000      1.79087e+01
205.000      1.77043e+01
206.000      1.73702e+01
207.000      1.68884e+01
208.000      1.62484e+01
209.000      1.54546e+01
210.000      1.45315e+01
211.000      1.35241e+01
212.000      1.24929e+01
213.000      1.15045e+01
214.000      1.06200e+01
215.000      9.88546e+00
216.000      9.32681e+00
217.000      8.94937e+00
218.000      8.74192e+00
219.000      8.68270e+00
220.000      8.74501e+00
221.000      8.90101e+00
222.000      9.12317e+00
223.000      9.38435e+00
224.000      9.65785e+00
225.000      9.91888e+00
226.000      1.01478e+01
227.000      1.03344e+01
228.000      1.04819e+01
229.000      1.06084e+01
230.000      1.07439e+01
231.000      1.09241e+01
232.000      1.11809e+01
233.000      1.15334e+01
234.000      1.19820e+01
235.000      1.25074e+01
236.000      1.30751e+01
237.000      1.36439e+01
238.000      1.41750e+01
239.000      1.46399e+01
240.000      1.50238e+01
241.000      1.53241e+01
242.000      1.55466e+01
243.000      1.56986e+01
244.000      1.57837e+01
245.000      1.57981e+01
246.000      1.57308e+01
247.000      1.55659e+01
248.000      1.52872e+01
249.000      1.48833e+01
250.000      1.43518e+01
251.000      1.37015e+01
252.000      1.29526e+01
253.000      1.21344e+01
254.000      1.12806e+01
255.000      1.04245e+01
256.000      9.59386e+00
257.000      8.80749e+00
258.000      8.07485e+00
259.000      7.39801e+00
260.000      6.77576e+00
261.000      6.20811e+00
262.000      5.69954e+00
263.000      5.26023e+00
264.000      4.90536e+00
265.000      4.65385e+00
266.000      4.52732e+00
267.000      4.54983e+00
268.000      4.74743e+00
269.000      5.14614e+00
270.000      5.76748e+00
271.000      6.62177e+00
272.000      7.70105e+00
273.000      8.97431e+00
274.000      1.03874e+01
275.000      1.18689e+01
276.000      1.33406e+01
277.000      1.47302e+01
278.000      1.59824e+01
279.000      1.70645e+01
280.000      1.79646e+01
281.000      1.86834e+01
282.000      1.92231e+01
283.000      1.95780e+01
284.000      1.97308e+01
285.000      1.96574e+01
286.000      1.93372e+01
287.000      1.87657e+01
288.000      1.79629e+01
289.000      1.69755e+01
290.000      1.58707e+01
291.000      1.47235e+01
292.000      1.36026e+01
293.000      1.25588e+01
294.000      1.16183e+01
295.000      1.07824e+01
296.000      1.00332e+01
297.000      9.34252e+00
298.000      8.68212e+00
299.000      8.03201e+00
300.000      7.38558e+00
301.000      6.75030e+00
302.000      6.14437e+00
303.000      5.59096e+00
304.000      5.11175e+00
305.000      4.72167e+00
306.000      4.42593e+00
307.000      4.21929e+00
308.000      4.08720e+00
309.000      4.00815e+00
310.000      3.95680e+00
311.000      3.90777e+00
312.000      3.83968e+00
313.000      3.73884e+00
314.000      3.60180e+00
315.000      3.43589e+00
316.000      3.25764e+00
317.000      3.08943e+00
318.000      2.95545e+00
319.000      2.87790e+00
320.000      2.87414e+00
321.000      2.95512e+00
322.000      3.12497e+00
323.000      3.38199e+00
324.000      3.72062e+00
325.000      4.13435e+00
326.000      4.61837e+00
327.000      5.17098e+00
328.000      5.79262e+00
329.000      6.48258e+00
330.000      7.23479e+00
331.000      8.03502e+00
332.000      8.86134e+00
333.000      9.68859e+00
334.000      1.04949e+01
335.000      1.12672e+01
336.000      1.20028e+01
337.000      1.27057e+01
338.000      1.33786e+01
339.000      1.40151e+01
340.000      1.45949e+01
341.000      1.50854e+01
342.000      1.54486e+01
343.000      1.56508e+01
344.000      1.56719e+01
345.000      1.55100e+01
346.000      1.51799e+01
347.000      1.47075e+01
348.000      1.41208e+01
349.000      1.34424e+01
350.000      1.26866e+01
351.000      1.18611e+01
352.000      1.09749e+01
353.000      1.00457e+01
354.000      9.10657e+00
355.000      8.20558e+00
356.000      7.39820e+00
357.000      6.73493e+00
358.000      6.24801e+00
359.000      5.94248e+00
360.000      5.79484e+00
361.000      5.75963e+00
362.000      5.78116e+00
363.000      5.80630e+00
364.000      5.79414e+00
365.000      5.72064e+00
366.000      5.57816e+00
367.000      5.37165e+00
368.000      5.11381e+00
369.000      4.82098e+00
370.000      4.51072e+00
371.000      4.20082e+00
372.000      3.90897e+00
373.000      3.65228e+00
374.000      3.44626e+00
375.000      3.30357e+00
376.000      3.23301e+00
377.000      3.23933e+00
378.000      3.32341e+00
379.000      3.48245e+00
380.000      3.70913e+00
381.000      3.98986e+00
382.000      4.30282e+00
383.000      4.61743e+00
384.000      4.89648e+00
385.000      5.10152e+00
386.000      5.20020e+00
387.000      5.17352e+00
388.000      5.02027e+00
389.000      4.75729e+00
390.000      4.41505e+00
391.000      4.03029e+00
392.000      3.63782e+00
393.000      3.26390e+00
394.000      2.92276e+00
395.000      2.61670e+00
396.000      2.33904e+00
397.000      2.07881e+00
398.000      1.82556e+00
399.000      1.57304e+00
400.000      1.32090e+00
401.000      1.07435e+00
402.000      8.42086e-01
403.000      6.33455e-01
404.000      4.55847e-01
405.000      3.13020e-01
406.000      2.04704e-01
407.000      1.27300e-01
408.000      7.51924e-02
409.000      4.21474e-02
410.000      2.24037e-02
411.000      1.12872e-02
412.000      5.38755e-03
413.000      2.43554e-03
414.000      1.04253e-03
415.000      4.22464e-04
416.000      1.62044e-04
417.000      5.88256e-05
418.000      2.02094e-05
419.000      6.56994e-06
420.000      2.02101e-06
421.000      5.88242e-07
422.000      1.61998e-07
423.000      4.22104e-08
424.000      1.04058e-08
425.000      2.42702e-09
426.000      5.35557e-10
427.000      1.11807e-10
428.000      2.20831e-11
429.000      4.12646e-12
430.000      7.29490e-13
431.000      1.22007e-13
432.000      1.93050e-14
433.000      2.88985e-15
434.000      4.09262e-16
435.000      5.48336e-17
436.000      6.95042e-18
437.000      8.33477e-19
438.000      9.45574e-20
439.000      1.01488e-20
440.000      1.03051e-21
441.000      9.89940e-23
442.000      8.99668e-24
443.000      7.73525e-25
444.000      6.29192e-26
445.000      4.84184e-27
446.000      3.52497e-28
447.000      2.42783e-29
448.000      1.58197e-30
449.000      9.75205e-32
450.000      5.68737e-33
451.000      3.13794e-34
452.000      1.63793e-35
453.000      8.08842e-37
454.000      3.77876e-38
455.000      1.67014e-39
456.000      6.98352e-41
457.000      2.76257e-42
458.000      1.03388e-43
459.000      3.66052e-45
460.000      1.22613e-46
461.000      3.88547e-48
462.000      1.16485e-49
463.000      3.30381e-51
464.000      8.86497e-53
465.000      2.25039e-54
466.000      5.40448e-56
467.000      1.22792e-57
468.000      2.63938e-59
469.000      5.36724e-61
470.000      1.03257e-62
471.000      1.87933e-64
472.000      3.23599e-66
473.000      5.27142e-68
474.000      8.12391e-70
475.000      1.18446e-71
476.000      1.63378e-73
477.000      2.13199e-75
478.000      2.63205e-77
479.000      3.07411e-79
480.000      3.39675e-81
481.000      3.55078e-83
482.000      3.51158e-85
483.000      3.28548e-87
484.000      2.90813e-89
485.000      2.43526e-91
486.000      1.92928e-93
487.000      1.44598e-95
488.000      1.02529e-97
489.000     6.87777e-100
490.000     4.36483e-102
491.000     2.62062e-104
492.000     1.48854e-106
493.000     7.99892e-109
494.000     4.06651e-111
495.000     1.95582e-113
496.000     8.89927e-116
497.000     3.83087e-118
498.000     1.56012e-120
499.000     6.01085e-123
500.000     2.19094e-125
