# Gaussian folded, width=10 cm^-1
# [cm^-1] arbitrary
0.000      3.00000e+00
1.000      2.91796e+00
2.000      2.68508e+00
3.000      2.33749e+00
4.000      1.92514e+00
5.000      1.50000e+00
6.000      1.10570e+00
7.000      7.71085e-01
8.000      5.08727e-01
9.000      3.17529e-01
10.000      1.87500e-01
11.000      1.04746e-01
12.000      5.53590e-02
13.000      2.76796e-02
14.000      1.30934e-02
15.000      5.86006e-03
16.000      2.48310e-03
17.000      1.00161e-03
18.000      4.01813e-04
19.000      2.10879e-04
20.000      2.61673e-04
21.000      5.97105e-04
22.000      1.49499e-03
23.000      3.62100e-03
24.000      8.34384e-03
25.000      1.82593e-02
26.000      3.79493e-02
27.000      7.49288e-02
28.000      1.40590e-01
29.000      2.50762e-01
30.000      4.25318e-01
31.000      6.86202e-01
32.000      1.05345e+00
33.000      1.53934e+00
34.000      2.14156e+00
35.000      2.83735e+00
36.000      3.58076e+00
37.000      4.30517e+00
38.000      4.93190e+00
39.000      5.38365e+00
40.000      5.59997e+00
41.000      5.55042e+00
42.000      5.24154e+00
43.000      4.71549e+00
44.000      4.04065e+00
45.000      3.29717e+00
46.000      2.56150e+00
47.000      1.89417e+00
48.000      1.33317e+00
49.000      8.93573e-01
50.000      5.71965e-01
51.000      3.53510e-01
52.000      2.19312e-01
53.000      1.52525e-01
54.000      1.42462e-01
55.000      1.86621e-01
56.000      2.90783e-01
57.000      4.67322e-01
58.000      7.31764e-01
59.000      1.09775e+00
60.000      1.57098e+00
61.000      2.14331e+00
62.000      2.78868e+00
63.000      3.46262e+00
64.000      4.10629e+00
65.000      4.65490e+00
66.000      5.04867e+00
67.000      5.24378e+00
68.000      5.22031e+00
69.000      4.98532e+00
70.000      4.57053e+00
71.000      4.02575e+00
72.000      3.40994e+00
73.000      2.78238e+00
74.000      2.19547e+00
75.000      1.69044e+00
76.000      1.29568e+00
77.000      1.02738e+00
78.000      8.91281e-01
79.000      8.84726e-01
80.000      9.98426e-01
81.000      1.21779e+00
82.000      1.52421e+00
83.000      1.89653e+00
84.000      2.31292e+00
85.000      2.75246e+00
86.000      3.19604e+00
87.000      3.62578e+00
88.000      4.02374e+00
89.000      4.37092e+00
90.000      4.64823e+00
91.000      4.84029e+00
92.000      4.94155e+00
93.000      4.96226e+00
94.000      4.93153e+00
95.000      4.89506e+00
96.000      4.90727e+00
97.000      5.01989e+00
98.000      5.27045e+00
99.000      5.67436e+00
100.000      6.22281e+00
101.000      6.88629e+00
102.000      7.62226e+00
103.000      8.38371e+00
104.000      9.12649e+00
105.000      9.81345e+00
106.000      1.04156e+01
107.000      1.09114e+01
108.000      1.12851e+01
109.000      1.15264e+01
110.000      1.16310e+01
111.000      1.16024e+01
112.000      1.14532e+01
113.000      1.12040e+01
114.000      1.08808e+01
115.000      1.05102e+01
116.000      1.01138e+01
117.000      9.70551e+00
118.000      9.29105e+00
119.000      8.87137e+00
120.000      8.44809e+00
121.000      8.02860e+00
122.000      7.62892e+00
123.000      7.27291e+00
124.000      6.98829e+00
125.000      6.80090e+00
126.000      6.72920e+00
127.000      6.78053e+00
128.000      6.95017e+00
129.000      7.22291e+00
130.000      7.57643e+00
131.000      7.98534e+00
132.000      8.42485e+00
133.000      8.87309e+00
134.000      9.31216e+00
135.000      9.72790e+00
136.000      1.01094e+01
137.000      1.04483e+01
138.000      1.07392e+01
139.000      1.09795e+01
140.000      1.11695e+01
141.000      1.13116e+01
142.000      1.14088e+01
143.000      1.14633e+01
144.000      1.14759e+01
145.000      1.14465e+01
146.000      1.13762e+01
147.000      1.12704e+01
148.000      1.11400e+01
149.000      1.10014e+01
150.000      1.08735e+01
151.000      1.07741e+01
152.000      1.07156e+01
153.000      1.07027e+01
154.000      1.07324e+01
155.000      1.07949e+01
156.000      1.08764e+01
157.000      1.09598e+01
158.000      1.10264e+01
159.000      1.10565e+01
160.000      1.10311e+01
161.000      1.09341e+01
162.000      1.07558e+01
163.000      1.04947e+01
164.000      1.01593e+01
165.000      9.76719e+00
166.000      9.34244e+00
167.000      8.91228e+00
168.000      8.50289e+00
169.000      8.13537e+00
170.000      7.82237e+00
171.000      7.56616e+00
172.000      7.35901e+00
173.000      7.18642e+00
174.000      7.03278e+00
175.000      6.88780e+00
176.000      6.75140e+00
177.000      6.63490e+00
178.000      6.55769e+00
179.000      6.54048e+00
180.000      6.59786e+00
181.000      6.73310e+00
182.000      6.93715e+00
183.000      7.19207e+00
184.000      7.47689e+00
185.000      7.77341e+00
186.000      8.06948e+00
187.000      8.35892e+00
188.000      8.63865e+00
189.000      8.90486e+00
190.000      9.15002e+00
191.000      9.36218e+00
192.000      9.52660e+00
193.000      9.62923e+00
194.000      9.66078e+00
195.000      9.62021e+00
196.000      9.51649e+00
197.000      9.36806e+00
198.000      9.19956e+00
199.000      9.03648e+00
200.000      8.89903e+00
201.000      8.79693e+00
202.000      8.72705e+00
203.000      8.67493e+00
204.000      8.61973e+00
205.000      8.54106e+00
206.000      8.42520e+00
207.000      8.26864e+00
208.000      8.07771e+00
209.000      7.86486e+00
210.000      7.64325e+00
211.000      7.42178e+00
212.000      7.20247e+00
213.000      6.98091e+00
214.000      6.74958e+00
215.000      6.50260e+00
216.000      6.24049e+00
217.000      5.97321e+00
218.000      5.72054e+00
219.000      5.50946e+00
220.000      5.36901e+00
221.000      5.32376e+00
222.000      5.38769e+00
223.000      5.55972e+00
224.000      5.82249e+00
225.000      6.14464e+00
226.000      6.48654e+00
227.000      6.80834e+00
228.000      7.07851e+00
229.000      7.28098e+00
230.000      7.41832e+00
231.000      7.50991e+00
232.000      7.58484e+00
233.000      7.67140e+00
234.000      7.78657e+00
235.000      7.92913e+00
236.000      8.07927e+00
237.000      8.20487e+00
238.000      8.27234e+00
239.000      8.25812e+00
240.000      8.15663e+00
241.000      7.98228e+00
242.000      7.76543e+00
243.000      7.54412e+00
244.000      7.35484e+00
245.000      7.22504e+00
246.000      7.16924e+00
247.000      7.18882e+00
248.000      7.27432e+00
249.000      7.40869e+00
250.000      7.56977e+00
251.000      7.73161e+00
252.000      7.86494e+00
253.000      7.93804e+00
254.000      7.91926e+00
255.000      7.78185e+00
256.000      7.51028e+00
257.000      7.10631e+00
258.000      6.59244e+00
259.000      6.01058e+00
260.000      5.41581e+00
261.000      4.86646e+00
262.000      4.41353e+00
263.000      4.09279e+00
264.000      3.92143e+00
265.000      3.89948e+00
266.000      4.01389e+00
267.000      4.24255e+00
268.000      4.55625e+00
269.000      4.91845e+00
270.000      5.28474e+00
271.000      5.60455e+00
272.000      5.82682e+00
273.000      5.90914e+00
274.000      5.82797e+00
275.000      5.58616e+00
276.000      5.21487e+00
277.000      4.76852e+00
278.000      4.31407e+00
279.000      3.91731e+00
280.000      3.63014e+00
281.000      3.48192e+00
282.000      3.47709e+00
283.000      3.59902e+00
284.000      3.81861e+00
285.000      4.10469e+00
286.000      4.43283e+00
287.000      4.79026e+00
288.000      5.17563e+00
289.000      5.59464e+00
290.000      6.05347e+00
291.000      6.55270e+00
292.000      7.08386e+00
293.000      7.62923e+00
294.000      8.16472e+00
295.000      8.66431e+00
296.000      9.10447e+00
297.000      9.46749e+00
298.000      9.74310e+00
299.000      9.92868e+00
300.000      1.00284e+01
301.000      1.00519e+01
302.000      1.00125e+01
303.000      9.92523e+00
304.000      9.80539e+00
305.000      9.66741e+00
306.000      9.52492e+00
307.000      9.39172e+00
308.000      9.28295e+00
309.000      9.21545e+00
310.000      9.20656e+00
311.000      9.27126e+00
312.000      9.41869e+00
313.000      9.64930e+00
314.000      9.95392e+00
315.000      1.03153e+01
316.000      1.07113e+01
317.000      1.11197e+01
318.000      1.15224e+01
319.000      1.19088e+01
320.000      1.22777e+01
321.000      1.26374e+01
322.000      1.30040e+01
323.000      1.33984e+01
324.000      1.38418e+01
325.000      1.43515e+01
326.000      1.49375e+01
327.000      1.55993e+01
328.000      1.63260e+01
329.000      1.70966e+01
330.000      1.78820e+01
331.000      1.86482e+01
332.000      1.93593e+01
333.000      1.99804e+01
334.000      2.04818e+01
335.000      2.08423e+01
336.000      2.10541e+01
337.000      2.11258e+01
338.000      2.10839e+01
339.000      2.09716e+01
340.000      2.08421e+01
341.000      2.07496e+01
342.000      2.07384e+01
343.000      2.08346e+01
344.000      2.10417e+01
345.000      2.13428e+01
346.000      2.17083e+01
347.000      2.21059e+01
348.000      2.25115e+01
349.000      2.29154e+01
350.000      2.33219e+01
351.000      2.37431e+01
352.000      2.41874e+01
353.000      2.46463e+01
354.000      2.50852e+01
355.000      2.54415e+01
356.000      2.56318e+01
357.000      2.55680e+01
358.000      2.51769e+01
359.000      2.44187e+01
360.000      2.32987e+01
361.000      2.18676e+01
362.000      2.02129e+01
363.000      1.84418e+01
364.000      1.66631e+01
365.000      1.49702e+01
366.000      1.34302e+01
367.000      1.20804e+01
368.000      1.09312e+01
369.000      9.97402e+00
370.000      9.19119e+00
371.000      8.56398e+00
372.000      8.07778e+00
373.000      7.72318e+00
374.000      7.49459e+00
375.000      7.38854e+00
376.000      7.40337e+00
377.000      7.54107e+00
378.000      7.80978e+00
379.000      8.22522e+00
380.000      8.80881e+00
381.000      9.58204e+00
382.000      1.05580e+01
383.000      1.17323e+01
384.000      1.30760e+01
385.000      1.45327e+01
386.000      1.60200e+01
387.000      1.74352e+01
388.000      1.86642e+01
389.000      1.95914e+01
390.000      2.01118e+01
391.000      2.01435e+01
392.000      1.96401e+01
393.000      1.86015e+01
394.000      1.70806e+01
395.000      1.51806e+01
396.000      1.30449e+01
397.000      1.08376e+01
398.000      8.72051e+00
399.000      6.83120e+00
400.000      5.26631e+00
401.000      4.07364e+00
402.000      3.25292e+00
403.000      2.76381e+00
404.000      2.53846e+00
405.000      2.49578e+00
406.000      2.55509e+00
407.000      2.64729e+00
408.000      2.72244e+00
409.000      2.75314e+00
410.000      2.73380e+00
411.000      2.67647e+00
412.000      2.60408e+00
413.000      2.54272e+00
414.000      2.51392e+00
415.000      2.52880e+00
416.000      2.58490e+00
417.000      2.66649e+00
418.000      2.74832e+00
419.000      2.80164e+00
420.000      2.80080e+00
421.000      2.72879e+00
422.000      2.58038e+00
423.000      2.36248e+00
424.000      2.09230e+00
425.000      1.79397e+00
426.000      1.49468e+00
427.000      1.22095e+00
428.000      9.95242e-01
429.000      8.33331e-01
430.000      7.42311e-01
431.000      7.19628e-01
432.000      7.53286e-01
433.000      8.23491e-01
434.000      9.05760e-01
435.000      9.75168e-01
436.000      1.01094e+00
437.000      1.00030e+00
438.000      9.40486e-01
439.000      8.38342e-01
440.000      7.07725e-01
441.000      5.65522e-01
442.000      4.27624e-01
443.000      3.05947e-01
444.000      2.07097e-01
445.000      1.32628e-01
446.000      8.03557e-02
447.000      4.60597e-02
448.000      2.49772e-02
449.000      1.28140e-02
450.000      6.21934e-03
451.000      2.85576e-03
452.000      1.24056e-03
453.000      5.09835e-04
454.000      1.98226e-04
455.000      7.29134e-05
456.000      2.53731e-05
457.000      8.35326e-06
458.000      2.60169e-06
459.000      7.66610e-07
460.000      2.13703e-07
461.000      5.63591e-08
462.000      1.40616e-08
463.000      3.31912e-09
464.000      7.41190e-10
465.000      1.56586e-10
466.000      3.12964e-11
467.000      5.91771e-12
468.000      1.05860e-12
469.000      1.79153e-13
470.000      2.86838e-14
471.000      4.34476e-15
472.000      6.22606e-16
473.000      8.44068e-17
474.000      1.08258e-17
475.000      1.31359e-18
476.000      1.50792e-19
477.000      1.63762e-20
478.000      1.68254e-21
479.000      1.63544e-22
480.000      1.50391e-23
481.000      1.30836e-24
482.000      1.07684e-25
483.000      8.38478e-27
484.000      6.17661e-28
485.000      4.30453e-29
486.000      2.83805e-30
487.000      1.77023e-31
488.000      1.04462e-32
489.000      5.83183e-34
490.000      3.08013e-35
491.000      1.53904e-36
492.000      7.27528e-38
493.000      3.25361e-39
494.000      1.37658e-40
495.000      5.51001e-42
496.000      2.08652e-43
497.000      7.47496e-45
498.000      2.53346e-46
499.000      8.12336e-48
500.000      2.46420e-49
