# Gaussian folded, width=10 cm^-1
# [cm^-1] arbitrary
0.000      3.00000e+00
1.000      2.91796e+00
2.000      2.68508e+00
3.000      2.33749e+00
4.000      1.92514e+00
5.000      1.50000e+00
6.000      1.10570e+00
7.000      7.71085e-01
8.000      5.08727e-01
9.000      3.17529e-01
10.000      1.87500e-01
11.000      1.04746e-01
12.000      5.53590e-02
13.000      2.76795e-02
14.000      1.30932e-02
15.000      5.85939e-03
16.000      2.48074e-03
17.000      9.93776e-04
18.000      3.77143e-04
19.000      1.37238e-04
20.000      5.34062e-05
21.000      3.90428e-05
22.000      7.81271e-05
23.000      2.12458e-04
24.000      5.74135e-04
25.000      1.47805e-03
26.000      3.60969e-03
27.000      8.36093e-03
28.000      1.83707e-02
29.000      3.82998e-02
30.000      7.57867e-02
31.000      1.42382e-01
32.000      2.54059e-01
33.000      4.30722e-01
34.000      6.94099e-01
35.000      1.06363e+00
36.000      1.55060e+00
37.000      2.15151e+00
38.000      2.84254e+00
39.000      3.57746e+00
40.000      4.29052e+00
41.000      4.90514e+00
42.000      5.34698e+00
43.000      5.55844e+00
44.000      5.51082e+00
45.000      5.21060e+00
46.000      4.69801e+00
47.000      4.03831e+00
48.000      3.30838e+00
49.000      2.58228e+00
50.000      1.91946e+00
51.000      1.35816e+00
52.000      9.14373e-01
53.000      5.85510e-01
54.000      3.56613e-01
55.000      2.06957e-01
56.000      1.15525e-01
57.000      6.46255e-02
58.000      4.17560e-02
59.000      4.02537e-02
60.000      5.93452e-02
61.000      1.04010e-01
62.000      1.84715e-01
63.000      3.16719e-01
64.000      5.18444e-01
65.000      8.08428e-01
66.000      1.20073e+00
67.000      1.69934e+00
68.000      2.29276e+00
69.000      2.95071e+00
70.000      3.62447e+00
71.000      4.25205e+00
72.000      4.76764e+00
73.000      5.11335e+00
74.000      5.25035e+00
75.000      5.16617e+00
76.000      4.87644e+00
77.000      4.42065e+00
78.000      3.85384e+00
79.000      3.23656e+00
80.000      2.62588e+00
81.000      2.06920e+00
82.000      1.60119e+00
83.000      1.24349e+00
84.000      1.00609e+00
85.000      8.89224e-01
86.000      8.85356e-01
87.000      9.80808e-01
88.000      1.15736e+00
89.000      1.39394e+00
90.000      1.66863e+00
91.000      1.96077e+00
92.000      2.25287e+00
93.000      2.53192e+00
94.000      2.78980e+00
95.000      3.02272e+00
96.000      3.22990e+00
97.000      3.41180e+00
98.000      3.56861e+00
99.000      3.69941e+00
100.000      3.80263e+00
101.000      3.87794e+00
102.000      3.92907e+00
103.000      3.96654e+00
104.000      4.00901e+00
105.000      4.08200e+00
106.000      4.21394e+00
107.000      4.43038e+00
108.000      4.74810e+00
109.000      5.17108e+00
110.000      5.68947e+00
111.000      6.28150e+00
112.000      6.91727e+00
113.000      7.56277e+00
114.000      8.18319e+00
115.000      8.74530e+00
116.000      9.21974e+00
117.000      9.58404e+00
118.000      9.82636e+00
119.000      9.94893e+00
120.000      9.96941e+00
121.000      9.91840e+00
122.000      9.83287e+00
123.000      9.74695e+00
124.000      9.68285e+00
125.000      9.64493e+00
126.000      9.61896e+00
127.000      9.57667e+00
128.000      9.48400e+00
129.000      9.31043e+00
130.000      9.03681e+00
131.000      8.66039e+00
132.000      8.19651e+00
133.000      7.67721e+00
134.000      7.14748e+00
135.000      6.65927e+00
136.000      6.26363e+00
137.000      6.00178e+00
138.000      5.89669e+00
139.000      5.94727e+00
140.000      6.12730e+00
141.000      6.39021e+00
142.000      6.67877e+00
143.000      6.93749e+00
144.000      7.12416e+00
145.000      7.21753e+00
146.000      7.21945e+00
147.000      7.15148e+00
148.000      7.04786e+00
149.000      6.94740e+00
150.000      6.88655e+00
151.000      6.89540e+00
152.000      6.99672e+00
153.000      7.20713e+00
154.000      7.53882e+00
155.000      7.99999e+00
156.000      8.59307e+00
157.000      9.31084e+00
158.000      1.01319e+01
159.000      1.10175e+01
160.000      1.19118e+01
161.000      1.27474e+01
162.000      1.34550e+01
163.000      1.39760e+01
164.000      1.42747e+01
165.000      1.43455e+01
166.000      1.42138e+01
167.000      1.39283e+01
168.000      1.35480e+01
169.000      1.31269e+01
170.000      1.27010e+01
171.000      1.22824e+01
172.000      1.18606e+01
173.000      1.14104e+01
174.000      1.09036e+01
175.000      1.03202e+01
176.000      9.65574e+00
177.000      8.92365e+00
178.000      8.15221e+00
179.000      7.37828e+00
180.000      6.64011e+00
181.000      5.97123e+00
182.000      5.39660e+00
183.000      4.93103e+00
184.000      4.57933e+00
185.000      4.33743e+00
186.000      4.19406e+00
187.000      4.13263e+00
188.000      4.13332e+00
189.000      4.17531e+00
190.000      4.23926e+00
191.000      4.30976e+00
192.000      4.37776e+00
193.000      4.44249e+00
194.000      4.51200e+00
195.000      4.60171e+00
196.000      4.73059e+00
197.000      4.91571e+00
198.000      5.16664e+00
199.000      5.48172e+00
200.000      5.84761e+00
201.000      6.24233e+00
202.000      6.64046e+00
203.000      7.01860e+00
204.000      7.35911e+00
205.000      7.65127e+00
206.000      7.89002e+00
207.000      8.07308e+00
208.000      8.19775e+00
209.000      8.25841e+00
210.000      8.24542e+00
211.000      8.14637e+00
212.000      7.94936e+00
213.000      7.64801e+00
214.000      7.24649e+00
215.000      6.76256e+00
216.000      6.22724e+00
217.000      5.68018e+00
218.000      5.16213e+00
219.000      4.70644e+00
220.000      4.33212e+00
221.000      4.04042e+00
222.000      3.81567e+00
223.000      3.62992e+00
224.000      3.45004e+00
225.000      3.24558e+00
226.000      2.99546e+00
227.000      2.69204e+00
228.000      2.34184e+00
229.000      1.96291e+00
230.000      1.57976e+00
231.000      1.21751e+00
232.000      8.96713e-01
233.000      6.30130e-01
234.000      4.21934e-01
235.000      2.68935e-01
236.000      1.63030e-01
237.000      9.39286e-02
238.000      5.14022e-02
239.000      2.67055e-02
240.000      1.31665e-02
241.000      6.15790e-03
242.000      2.73118e-03
243.000      1.14843e-03
244.000      4.57711e-04
245.000      1.72871e-04
246.000      6.18611e-05
247.000      2.09705e-05
248.000      6.73359e-06
249.000      2.04876e-06
250.000      5.95141e-07
251.000      1.84364e-07
252.000      1.36753e-07
253.000      3.73822e-07
254.000      1.31602e-06
255.000      4.48990e-06
256.000      1.45154e-05
257.000      4.44027e-05
258.000      1.28515e-04
259.000      3.51941e-04
260.000      9.11981e-04
261.000      2.23632e-03
262.000      5.18994e-03
263.000      1.14009e-02
264.000      2.37117e-02
265.000      4.67057e-02
266.000      8.71680e-02
267.000      1.54242e-01
268.000      2.59000e-01
269.000      4.13226e-01
270.000      6.27504e-01
271.000      9.09061e-01
272.000      1.26018e+00
273.000      1.67800e+00
274.000      2.15589e+00
275.000      2.68577e+00
276.000      3.25970e+00
277.000      3.86904e+00
278.000      4.50051e+00
279.000      5.13060e+00
280.000      5.72190e+00
281.000      6.22527e+00
282.000      6.59022e+00
283.000      6.78226e+00
284.000      6.80171e+00
285.000      6.69647e+00
286.000      6.56220e+00
287.000      6.52701e+00
288.000      6.72369e+00
289.000      7.25664e+00
290.000      8.17327e+00
291.000      9.44806e+00
292.000      1.09839e+01
293.000      1.26298e+01
294.000      1.42098e+01
295.000      1.55543e+01
296.000      1.65271e+01
297.000      1.70434e+01
298.000      1.70768e+01
299.000      1.66595e+01
300.000      1.58770e+01
301.000      1.48585e+01
302.000      1.37625e+01
303.000      1.27560e+01
304.000      1.19876e+01
305.000      1.15588e+01
306.000      1.15013e+01
307.000      1.17677e+01
308.000      1.22399e+01
309.000      1.27559e+01
310.000      1.31482e+01
311.000      1.32848e+01
312.000      1.31024e+01
313.000      1.26238e+01
314.000      1.19558e+01
315.000      1.12675e+01
316.000      1.07542e+01
317.000      1.05949e+01
318.000      1.09136e+01
319.000      1.17528e+01
320.000      1.30661e+01
321.000      1.47310e+01
322.000      1.65780e+01
323.000      1.84281e+01
324.000      2.01283e+01
325.000      2.15771e+01
326.000      2.27341e+01
327.000      2.36132e+01
328.000      2.42643e+01
329.000      2.47492e+01
330.000      2.51202e+01
331.000      2.54064e+01
332.000      2.56097e+01
333.000      2.57112e+01
334.000      2.56838e+01
335.000      2.55054e+01
336.000      2.51701e+01
337.000      2.46928e+01
338.000      2.41085e+01
339.000      2.34657e+01
340.000      2.28187e+01
341.000      2.22192e+01
342.000      2.17115e+01
343.000      2.13282e+01
344.000      2.10898e+01
345.000      2.10028e+01
346.000      2.10608e+01
347.000      2.12444e+01
348.000      2.15231e+01
349.000      2.18600e+01
350.000      2.22174e+01
351.000      2.25650e+01
352.000      2.28866e+01
353.000      2.31849e+01
354.000      2.34798e+01
355.000      2.38019e+01
356.000      2.41795e+01
357.000      2.46246e+01
358.000      2.51212e+01
359.000      2.56214e+01
360.000      2.60502e+01
361.000      2.63187e+01
362.000      2.63427e+01
363.000      2.60593e+01
364.000      2.54399e+01
365.000      2.44936e+01
366.000      2.32628e+01
367.000      2.18118e+01
368.000      2.02134e+01
369.000      1.85370e+01
370.000      1.68421e+01
371.000      1.51774e+01
372.000      1.35857e+01
373.000      1.21093e+01
374.000      1.07937e+01
375.000      9.68690e+00
376.000      8.83467e+00
377.000      8.27383e+00
378.000      8.02773e+00
379.000      8.10550e+00
380.000      8.50497e+00
381.000      9.21687e+00
382.000      1.02269e+01
383.000      1.15136e+01
384.000      1.30419e+01
385.000      1.47572e+01
386.000      1.65844e+01
387.000      1.84344e+01
388.000      2.02199e+01
389.000      2.18725e+01
390.000      2.33536e+01
391.000      2.46519e+01
392.000      2.57660e+01
393.000      2.66783e+01
394.000      2.73333e+01
395.000      2.76321e+01
396.000      2.74487e+01
397.000      2.66656e+01
398.000      2.52146e+01
399.000      2.31094e+01
400.000      2.04562e+01
401.000      1.74394e+01
402.000      1.42872e+01
403.000      1.12285e+01
404.000      8.45419e+00
405.000      6.09150e+00
406.000      4.19679e+00
407.000      2.76335e+00
408.000      1.73960e+00
409.000      1.05043e+00
410.000      6.16279e-01
411.000      3.66584e-01
412.000      2.47012e-01
413.000      2.21200e-01
414.000      2.68724e-01
415.000      3.80895e-01
416.000      5.55636e-01
417.000      7.92324e-01
418.000      1.08732e+00
419.000      1.43088e+00
420.000      1.80599e+00
421.000      2.18958e+00
422.000      2.55599e+00
423.000      2.88189e+00
424.000      3.15116e+00
425.000      3.35807e+00
426.000      3.50726e+00
427.000      3.61007e+00
428.000      3.67822e+00
429.000      3.71722e+00
430.000      3.72225e+00
431.000      3.67852e+00
432.000      3.56650e+00
433.000      3.36991e+00
434.000      3.08364e+00
435.000      2.71813e+00
436.000      2.29885e+00
437.000      1.86104e+00
438.000      1.44209e+00
439.000      1.07427e+00
440.000      7.80034e-01
441.000      5.70600e-01
442.000      4.47207e-01
443.000      4.03611e-01
444.000      4.28381e-01
445.000      5.06295e-01
446.000      6.18969e-01
447.000      7.45471e-01
448.000      8.63740e-01
449.000      9.53118e-01
450.000      9.97615e-01
451.000      9.88871e-01
452.000      9.27697e-01
453.000      8.23489e-01
454.000      6.91597e-01
455.000      5.49511e-01
456.000      4.13067e-01
457.000      2.93755e-01
458.000      1.97636e-01
459.000      1.25796e-01
460.000      7.57503e-02
461.000      4.31538e-02
462.000      2.32580e-02
463.000      1.18589e-02
464.000      5.72046e-03
465.000      2.61058e-03
466.000      1.12709e-03
467.000      4.60363e-04
468.000      1.77893e-04
469.000      6.50331e-05
470.000      2.24920e-05
471.000      7.35935e-06
472.000      2.27808e-06
473.000      6.67137e-07
474.000      1.84833e-07
475.000      4.84463e-08
476.000      1.20132e-08
477.000      2.81823e-09
478.000      6.25477e-10
479.000      1.31330e-10
480.000      2.60875e-11
481.000      4.90253e-12
482.000      8.71615e-13
483.000      1.46604e-13
484.000      2.33285e-14
485.000      3.51192e-15
486.000      5.00173e-16
487.000      6.73927e-17
488.000      8.59060e-18
489.000      1.03598e-18
490.000      1.18194e-19
491.000      1.27573e-20
492.000      1.30269e-21
493.000      1.25846e-22
494.000      1.15015e-23
495.000      9.94465e-25
496.000      8.13468e-26
497.000      6.29520e-27
498.000      4.60889e-28
499.000      3.19227e-29
500.000      2.09181e-30
