# Gaussian folded, width=10 cm^-1
# [cm^-1] arbitrary
0.000      3.00000e+00
1.000      2.91796e+00
2.000      2.68508e+00
3.000      2.33749e+00
4.000      1.92514e+00
5.000      1.50000e+00
6.000      1.10570e+00
7.000      7.71085e-01
8.000      5.08727e-01
9.000      3.17529e-01
10.000      1.87500e-01
11.000      1.04746e-01
12.000      5.53590e-02
13.000      2.76795e-02
14.000      1.30932e-02
15.000      5.85939e-03
16.000      2.48076e-03
17.000      9.93841e-04
18.000      3.77362e-04
19.000      1.37937e-04
20.000      5.55099e-05
21.000      4.49983e-05
22.000      9.39706e-05
23.000      2.52028e-04
24.000      6.66805e-04
25.000      1.68125e-03
26.000      4.02603e-03
27.000      9.15604e-03
28.000      1.97811e-02
29.000      4.06122e-02
30.000      7.92652e-02
31.000      1.47126e-01
32.000      2.59803e-01
33.000      4.36628e-01
34.000      6.98643e-01
35.000      1.06472e+00
36.000      1.54597e+00
37.000      2.13939e+00
38.000      2.82246e+00
39.000      3.55072e+00
40.000      4.26026e+00
41.000      4.87575e+00
42.000      5.32299e+00
43.000      5.54340e+00
44.000      5.50639e+00
45.000      5.21632e+00
46.000      4.71167e+00
47.000      4.05679e+00
48.000      3.32849e+00
49.000      2.60145e+00
50.000      1.93606e+00
51.000      1.37145e+00
52.000      9.24329e-01
53.000      5.92535e-01
54.000      3.61275e-01
55.000      2.09810e-01
56.000      1.16989e-01
57.000      6.49192e-02
58.000      4.08559e-02
59.000      3.78784e-02
60.000      5.49753e-02
61.000      9.69691e-02
62.000      1.74332e-01
63.000      3.02572e-01
64.000      5.00625e-01
65.000      7.87744e-01
66.000      1.17874e+00
67.000      1.67817e+00
68.000      2.27478e+00
69.000      2.93820e+00
70.000      3.61946e+00
71.000      4.25635e+00
72.000      4.78292e+00
73.000      5.14093e+00
74.000      5.29057e+00
75.000      5.21743e+00
76.000      4.93433e+00
77.000      4.47783e+00
78.000      3.90073e+00
79.000      3.26279e+00
80.000      2.62174e+00
81.000      2.02647e+00
82.000      1.51320e+00
83.000      1.10494e+00
84.000      8.13446e-01
85.000      6.42678e-01
86.000      5.92288e-01
87.000      6.59826e-01
88.000      8.40978e-01
89.000      1.12790e+00
90.000      1.50663e+00
91.000      1.95498e+00
92.000      2.44250e+00
93.000      2.93297e+00
94.000      3.38925e+00
95.000      3.77877e+00
96.000      4.07810e+00
97.000      4.27520e+00
98.000      4.36898e+00
99.000      4.36736e+00
100.000      4.28499e+00
101.000      4.14198e+00
102.000      3.96370e+00
103.000      3.78097e+00
104.000      3.62930e+00
105.000      3.54614e+00
106.000      3.56608e+00
107.000      3.71501e+00
108.000      4.00505e+00
109.000      4.43180e+00
110.000      4.97503e+00
111.000      5.60249e+00
112.000      6.27577e+00
113.000      6.95651e+00
114.000      7.61170e+00
115.000      8.21715e+00
116.000      8.75896e+00
117.000      9.23280e+00
118.000      9.64135e+00
119.000      9.99006e+00
120.000      1.02824e+01
121.000      1.05160e+01
122.000      1.06809e+01
123.000      1.07619e+01
124.000      1.07438e+01
125.000      1.06178e+01
126.000      1.03867e+01
127.000      1.00655e+01
128.000      9.67836e+00
129.000      9.25091e+00
130.000      8.80345e+00
131.000      8.34696e+00
132.000      7.88448e+00
133.000      7.41726e+00
134.000      6.95289e+00
135.000      6.51136e+00
136.000      6.12559e+00
137.000      5.83515e+00
138.000      5.67501e+00
139.000      5.66353e+00
140.000      5.79450e+00
141.000      6.03681e+00
142.000      6.34217e+00
143.000      6.65808e+00
144.000      6.94147e+00
145.000      7.16820e+00
146.000      7.33575e+00
147.000      7.45906e+00
148.000      7.56200e+00
149.000      7.66801e+00
150.000      7.79324e+00
151.000      7.94430e+00
152.000      8.12058e+00
153.000      8.31986e+00
154.000      8.54435e+00
155.000      8.80431e+00
156.000      9.11731e+00
157.000      9.50288e+00
158.000      9.97411e+00
159.000      1.05295e+01
160.000      1.11481e+01
161.000      1.17898e+01
162.000      1.24021e+01
163.000      1.29292e+01
164.000      1.33241e+01
165.000      1.35572e+01
166.000      1.36217e+01
167.000      1.35330e+01
168.000      1.33237e+01
169.000      1.30345e+01
170.000      1.27039e+01
171.000      1.23587e+01
172.000      1.20077e+01
173.000      1.16408e+01
174.000      1.12327e+01
175.000      1.07522e+01
176.000      1.01728e+01
177.000      9.48344e+00
178.000      8.69445e+00
179.000      7.83793e+00
180.000      6.96242e+00
181.000      6.12335e+00
182.000      5.37233e+00
183.000      4.74797e+00
184.000      4.27039e+00
185.000      3.94034e+00
186.000      3.74259e+00
187.000      3.65222e+00
188.000      3.64206e+00
189.000      3.68930e+00
190.000      3.77963e+00
191.000      3.90797e+00
192.000      4.07590e+00
193.000      4.28684e+00
194.000      4.54090e+00
195.000      4.83135e+00
196.000      5.14410e+00
197.000      5.46054e+00
198.000      5.76249e+00
199.000      6.03755e+00
200.000      6.28270e+00
201.000      6.50474e+00
202.000      6.71728e+00
203.000      6.93517e+00
204.000      7.16805e+00
205.000      7.41526e+00
206.000      7.66352e+00
207.000      7.88832e+00
208.000      8.05848e+00
209.000      8.14270e+00
210.000      8.11635e+00
211.000      7.96676e+00
212.000      7.69610e+00
213.000      7.32125e+00
214.000      6.87101e+00
215.000      6.38131e+00
216.000      5.88936e+00
217.000      5.42808e+00
218.000      5.02157e+00
219.000      4.68255e+00
220.000      4.41162e+00
221.000      4.19827e+00
222.000      4.02314e+00
223.000      3.86123e+00
224.000      3.68585e+00
225.000      3.47331e+00
226.000      3.20748e+00
227.000      2.88349e+00
228.000      2.50910e+00
229.000      2.10328e+00
230.000      1.69190e+00
231.000      1.30201e+00
232.000      9.56235e-01
233.000      6.68966e-01
234.000      4.45137e-01
235.000      2.81411e-01
236.000      1.68874e-01
237.000      9.61305e-02
238.000      5.18809e-02
239.000      2.65352e-02
240.000      1.28578e-02
241.000      5.90104e-03
242.000      2.56464e-03
243.000      1.05534e-03
244.000      4.11122e-04
245.000      1.51608e-04
246.000      5.29191e-05
247.000      1.74830e-05
248.000      5.46677e-06
249.000      1.61893e-06
250.000      4.58881e-07
251.000      1.45051e-07
252.000      1.30740e-07
253.000      3.90441e-07
254.000      1.38285e-06
255.000      4.70950e-06
256.000      1.51901e-05
257.000      4.63581e-05
258.000      1.33861e-04
259.000      3.65731e-04
260.000      9.45518e-04
261.000      2.31320e-03
262.000      5.35596e-03
263.000      1.17384e-02
264.000      2.43573e-02
265.000      4.78663e-02
266.000      8.91270e-02
267.000      1.57342e-01
268.000      2.63587e-01
269.000      4.19561e-01
270.000      6.35638e-01
271.000      9.18722e-01
272.000      1.27072e+00
273.000      1.68843e+00
274.000      2.16508e+00
275.000      2.69269e+00
276.000      3.26375e+00
277.000      3.87021e+00
278.000      4.49942e+00
279.000      5.12838e+00
280.000      5.71985e+00
281.000      6.22462e+00
282.000      6.59202e+00
283.000      6.78744e+00
284.000      6.81136e+00
285.000      6.71218e+00
286.000      6.58627e+00
287.000      6.56251e+00
288.000      6.77416e+00
289.000      7.32544e+00
290.000      8.26247e+00
291.000      9.55690e+00
292.000      1.11070e+01
293.000      1.27559e+01
294.000      1.43211e+01
295.000      1.56287e+01
296.000      1.65422e+01
297.000      1.69827e+01
298.000      1.69360e+01
299.000      1.64509e+01
300.000      1.56296e+01
301.000      1.46130e+01
302.000      1.35631e+01
303.000      1.26398e+01
304.000      1.19766e+01
305.000      1.16549e+01
306.000      1.16866e+01
307.000      1.20084e+01
308.000      1.24938e+01
309.000      1.29804e+01
310.000      1.33087e+01
311.000      1.33608e+01
312.000      1.30906e+01
313.000      1.25379e+01
314.000      1.18224e+01
315.000      1.11192e+01
316.000      1.06229e+01
317.000      1.05055e+01
318.000      1.08802e+01
319.000      1.17778e+01
320.000      1.31405e+01
321.000      1.48361e+01
322.000      1.66882e+01
323.000      1.85135e+01
324.000      2.01580e+01
325.000      2.15225e+01
326.000      2.25719e+01
327.000      2.33289e+01
328.000      2.38555e+01
329.000      2.42293e+01
330.000      2.45209e+01
331.000      2.47786e+01
332.000      2.50210e+01
333.000      2.52378e+01
334.000      2.53982e+01
335.000      2.54616e+01
336.000      2.53895e+01
337.000      2.51558e+01
338.000      2.47536e+01
339.000      2.41982e+01
340.000      2.35270e+01
341.000      2.27961e+01
342.000      2.20737e+01
343.000      2.14329e+01
344.000      2.09412e+01
345.000      2.06506e+01
346.000      2.05884e+01
347.000      2.07519e+01
348.000      2.11080e+01
349.000      2.15994e+01
350.000      2.21572e+01
351.000      2.27147e+01
352.000      2.32222e+01
353.000      2.36560e+01
354.000      2.40192e+01
355.000      2.43356e+01
356.000      2.46358e+01
357.000      2.49422e+01
358.000      2.52565e+01
359.000      2.55540e+01
360.000      2.57876e+01
361.000      2.58976e+01
362.000      2.58258e+01
363.000      2.55271e+01
364.000      2.49768e+01
365.000      2.41715e+01
366.000      2.31261e+01
367.000      2.18690e+01
368.000      2.04378e+01
369.000      1.88775e+01
370.000      1.72391e+01
371.000      1.55797e+01
372.000      1.39609e+01
373.000      1.24466e+01
374.000      1.10985e+01
375.000      9.97145e+00
376.000      9.10774e+00
377.000      8.53405e+00
378.000      8.26128e+00
379.000      8.28813e+00
380.000      8.60728e+00
381.000      9.21104e+00
382.000      1.00934e+01
383.000      1.12462e+01
384.000      1.26511e+01
385.000      1.42705e+01
386.000      1.60444e+01
387.000      1.78957e+01
388.000      1.97441e+01
389.000      2.15224e+01
390.000      2.31862e+01
391.000      2.47098e+01
392.000      2.60683e+01
393.000      2.72127e+01
394.000      2.80526e+01
395.000      2.84565e+01
396.000      2.82768e+01
397.000      2.73910e+01
398.000      2.57459e+01
399.000      2.33876e+01
400.000      2.04651e+01
401.000      1.72056e+01
402.000      1.38704e+01
403.000      1.07057e+01
404.000      7.90239e+00
405.000      5.57400e+00
406.000      3.75561e+00
407.000      2.41860e+00
408.000      1.49389e+00
409.000      8.95777e-01
410.000      5.40777e-01
411.000      3.59065e-01
412.000      2.98666e-01
413.000      3.24265e-01
414.000      4.13024e-01
415.000      5.49682e-01
416.000      7.22615e-01
417.000      9.21786e-01
418.000      1.13868e+00
419.000      1.36752e+00
420.000      1.60649e+00
421.000      1.85779e+00
422.000      2.12587e+00
423.000      2.41401e+00
424.000      2.72067e+00
425.000      3.03693e+00
426.000      3.34606e+00
427.000      3.62550e+00
428.000      3.85028e+00
429.000      3.99679e+00
430.000      4.04604e+00
431.000      3.98606e+00
432.000      3.81357e+00
433.000      3.53508e+00
434.000      3.16726e+00
435.000      2.73593e+00
436.000      2.27341e+00
437.000      1.81435e+00
438.000      1.39086e+00
439.000      1.02836e+00
440.000      7.43240e-01
441.000      5.42561e-01
442.000      4.25493e-01
443.000      3.85364e-01
444.000      4.11358e-01
445.000      4.89364e-01
446.000      6.02191e-01
447.000      7.29898e-01
448.000      8.50997e-01
449.000      9.44883e-01
450.000      9.95103e-01
451.000      9.92459e-01
452.000      9.36796e-01
453.000      8.36683e-01
454.000      7.07002e-01
455.000      5.65207e-01
456.000      4.27480e-01
457.000      3.05875e-01
458.000      2.07057e-01
459.000      1.32603e-01
460.000      8.03405e-02
461.000      4.60504e-02
462.000      2.49718e-02
463.000      1.28110e-02
464.000      6.21779e-03
465.000      2.85500e-03
466.000      1.24020e-03
467.000      5.09680e-04
468.000      1.98162e-04
469.000      7.28886e-05
470.000      2.53639e-05
471.000      8.35010e-06
472.000      2.60067e-06
473.000      7.66293e-07
474.000      2.13610e-07
475.000      5.63337e-08
476.000      1.40550e-08
477.000      3.31750e-09
478.000      7.40815e-10
479.000      1.56504e-10
480.000      3.12794e-11
481.000      5.91439e-12
482.000      1.05798e-12
483.000      1.79046e-13
484.000      2.86661e-14
485.000      4.34200e-15
486.000      6.22199e-16
487.000      8.43502e-17
488.000      1.08183e-17
489.000      1.31266e-18
490.000      1.50682e-19
491.000      1.63640e-20
492.000      1.68125e-21
493.000      1.63416e-22
494.000      1.50271e-23
495.000      1.30729e-24
496.000      1.07594e-25
497.000      8.37761e-27
498.000      6.17121e-28
499.000      4.30069e-29
500.000      2.83546e-30
