# Gaussian folded, width=10 cm^-1
# [cm^-1] arbitrary
0.000      3.00000e+00
1.000      2.91796e+00
2.000      2.68508e+00
3.000      2.33749e+00
4.000      1.92514e+00
5.000      1.50000e+00
6.000      1.10570e+00
7.000      7.71085e-01
8.000      5.08727e-01
9.000      3.17529e-01
10.000      1.87500e-01
11.000      1.04746e-01
12.000      5.53590e-02
13.000      2.76796e-02
14.000      1.30935e-02
15.000      5.86041e-03
16.000      2.48424e-03
17.000      1.00505e-03
18.000      4.11619e-04
19.000      2.37145e-04
20.000      3.27823e-04
21.000      7.53580e-04
22.000      1.84215e-03
23.000      4.34213e-03
24.000      9.74302e-03
25.000      2.07869e-02
26.000      4.21813e-02
27.000      8.14507e-02
28.000      1.49740e-01
29.000      2.62226e-01
30.000      4.37643e-01
31.000      6.96418e-01
32.000      1.05707e+00
33.000      1.53097e+00
34.000      2.11625e+00
35.000      2.79242e+00
36.000      3.51745e+00
37.000      4.22953e+00
38.000      4.85413e+00
39.000      5.31599e+00
40.000      5.55359e+00
41.000      5.53244e+00
42.000      5.25325e+00
43.000      4.75234e+00
44.000      4.09402e+00
45.000      3.35698e+00
46.000      2.61883e+00
47.000      1.94294e+00
48.000      1.37068e+00
49.000      9.20040e-01
50.000      5.89537e-01
51.000      3.65269e-01
52.000      2.28539e-01
53.000      1.62298e-01
54.000      1.55427e-01
55.000      2.04707e-01
56.000      3.14676e-01
57.000      4.95659e-01
58.000      7.60291e-01
59.000      1.11891e+00
60.000      1.57449e+00
61.000      2.11818e+00
62.000      2.72646e+00
63.000      3.36118e+00
64.000      3.97259e+00
65.000      4.50540e+00
66.000      4.90652e+00
67.000      5.13327e+00
68.000      5.16029e+00
69.000      4.98393e+00
70.000      4.62315e+00
71.000      4.11665e+00
72.000      3.51686e+00
73.000      2.88182e+00
74.000      2.26703e+00
75.000      1.71880e+00
76.000      1.27077e+00
77.000      9.43706e-01
78.000      7.47948e-01
79.000      6.87008e-01
80.000      7.60479e-01
81.000      9.65075e-01
82.000      1.29345e+00
83.000      1.73159e+00
84.000      2.25614e+00
85.000      2.83353e+00
86.000      3.42162e+00
87.000      3.97433e+00
88.000      4.44799e+00
89.000      4.80824e+00
90.000      5.03583e+00
91.000      5.13028e+00
92.000      5.11086e+00
93.000      5.01460e+00
94.000      4.89135e+00
95.000      4.79625e+00
96.000      4.78062e+00
97.000      4.88305e+00
98.000      5.12302e+00
99.000      5.49899e+00
100.000      5.99160e+00
101.000      6.57092e+00
102.000      7.20525e+00
103.000      7.86833e+00
104.000      8.54271e+00
105.000      9.21861e+00
106.000      9.88923e+00
107.000      1.05448e+01
108.000      1.11677e+01
109.000      1.17304e+01
110.000      1.21971e+01
111.000      1.25288e+01
112.000      1.26892e+01
113.000      1.26528e+01
114.000      1.24100e+01
115.000      1.19715e+01
116.000      1.13682e+01
117.000      1.06480e+01
118.000      9.86980e+00
119.000      9.09435e+00
120.000      8.37601e+00
121.000      7.75557e+00
122.000      7.25683e+00
123.000      6.88713e+00
124.000      6.64154e+00
125.000      6.50882e+00
126.000      6.47719e+00
127.000      6.53820e+00
128.000      6.68770e+00
129.000      6.92410e+00
130.000      7.24491e+00
131.000      7.64293e+00
132.000      8.10336e+00
133.000      8.60278e+00
134.000      9.11055e+00
135.000      9.59241e+00
136.000      1.00157e+01
137.000      1.03555e+01
138.000      1.05995e+01
139.000      1.07512e+01
140.000      1.08291e+01
141.000      1.08625e+01
142.000      1.08841e+01
143.000      1.09208e+01
144.000      1.09870e+01
145.000      1.10808e+01
146.000      1.11857e+01
147.000      1.12769e+01
148.000      1.13300e+01
149.000      1.13297e+01
150.000      1.12744e+01
151.000      1.11772e+01
152.000      1.10618e+01
153.000      1.09554e+01
154.000      1.08804e+01
155.000      1.08484e+01
156.000      1.08557e+01
157.000      1.08847e+01
158.000      1.09068e+01
159.000      1.08903e+01
160.000      1.08068e+01
161.000      1.06382e+01
162.000      1.03801e+01
163.000      1.00417e+01
164.000      9.64389e+00
165.000      9.21545e+00
166.000      8.78857e+00
167.000      8.39511e+00
168.000      8.06305e+00
169.000      7.81323e+00
170.000      7.65669e+00
171.000      7.59271e+00
172.000      7.60837e+00
173.000      7.67983e+00
174.000      7.77555e+00
175.000      7.86109e+00
176.000      7.90481e+00
177.000      7.88374e+00
178.000      7.78851e+00
179.000      7.62635e+00
180.000      7.42115e+00
181.000      7.21008e+00
182.000      7.03707e+00
183.000      6.94439e+00
184.000      6.96432e+00
185.000      7.11295e+00
186.000      7.38748e+00
187.000      7.76722e+00
188.000      8.21747e+00
189.000      8.69464e+00
190.000      9.15142e+00
191.000      9.54137e+00
192.000      9.82302e+00
193.000      9.96407e+00
194.000      9.94569e+00
195.000      9.76625e+00
196.000      9.44333e+00
197.000      9.01268e+00
198.000      8.52377e+00
199.000      8.03235e+00
200.000      7.59176e+00
201.000      7.24456e+00
202.000      7.01652e+00
203.000      6.91381e+00
204.000      6.92374e+00
205.000      7.01893e+00
206.000      7.16388e+00
207.000      7.32259e+00
208.000      7.46584e+00
209.000      7.57629e+00
210.000      7.65031e+00
211.000      7.69617e+00
212.000      7.72920e+00
213.000      7.76552e+00
214.000      7.81645e+00
215.000      7.88521e+00
216.000      7.96698e+00
217.000      8.05184e+00
218.000      8.12906e+00
219.000      8.19116e+00
220.000      8.23605e+00
221.000      8.26688e+00
222.000      8.29019e+00
223.000      8.31318e+00
224.000      8.34115e+00
225.000      8.37556e+00
226.000      8.41301e+00
227.000      8.44519e+00
228.000      8.45993e+00
229.000      8.44362e+00
230.000      8.38440e+00
231.000      8.27545e+00
232.000      8.11713e+00
233.000      7.91728e+00
234.000      7.68973e+00
235.000      7.45181e+00
236.000      7.22215e+00
237.000      7.01925e+00
238.000      6.86074e+00
239.000      6.76254e+00
240.000      6.73705e+00
241.000      6.79034e+00
242.000      6.91909e+00
243.000      7.10848e+00
244.000      7.33220e+00
245.000      7.55494e+00
246.000      7.73717e+00
247.000      7.84117e+00
248.000      7.83731e+00
249.000      7.70949e+00
250.000      7.45859e+00
251.000      7.10327e+00
252.000      6.67752e+00
253.000      6.22514e+00
254.000      5.79210e+00
255.000      5.41832e+00
256.000      5.13102e+00
257.000      4.94125e+00
258.000      4.84444e+00
259.000      4.82448e+00
260.000      4.85988e+00
261.000      4.92956e+00
262.000      5.01652e+00
263.000      5.10847e+00
264.000      5.19594e+00
265.000      5.26965e+00
266.000      5.31866e+00
267.000      5.33056e+00
268.000      5.29319e+00
269.000      5.19687e+00
270.000      5.03598e+00
271.000      4.80949e+00
272.000      4.52104e+00
273.000      4.17924e+00
274.000      3.79878e+00
275.000      3.40158e+00
276.000      3.01681e+00
277.000      2.67867e+00
278.000      2.42168e+00
279.000      2.27475e+00
280.000      2.25578e+00
281.000      2.36875e+00
282.000      2.60434e+00
283.000      2.94347e+00
284.000      3.36263e+00
285.000      3.83896e+00
286.000      4.35362e+00
287.000      4.89284e+00
288.000      5.44680e+00
289.000      6.00739e+00
290.000      6.56592e+00
291.000      7.11178e+00
292.000      7.63228e+00
293.000      8.11357e+00
294.000      8.54205e+00
295.000      8.90565e+00
296.000      9.19482e+00
297.000      9.40330e+00
298.000      9.52890e+00
299.000      9.57459e+00
300.000      9.54933e+00
301.000      9.46822e+00
302.000      9.35121e+00
303.000      9.22059e+00
304.000      9.09797e+00
305.000      9.00187e+00
306.000      8.94682e+00
307.000      8.94382e+00
308.000      9.00125e+00
309.000      9.12488e+00
310.000      9.31625e+00
311.000      9.56986e+00
312.000      9.87080e+00
313.000      1.01948e+01
314.000      1.05121e+01
315.000      1.07942e+01
316.000      1.10225e+01
317.000      1.11949e+01
318.000      1.13282e+01
319.000      1.14552e+01
320.000      1.16173e+01
321.000      1.18555e+01
322.000      1.22020e+01
323.000      1.26755e+01
324.000      1.32795e+01
325.000      1.40033e+01
326.000      1.48253e+01
327.000      1.57161e+01
328.000      1.66423e+01
329.000      1.75695e+01
330.000      1.84655e+01
331.000      1.93025e+01
332.000      2.00578e+01
333.000      2.07143e+01
334.000      2.12586e+01
335.000      2.16815e+01
336.000      2.19778e+01
337.000      2.21486e+01
338.000      2.22038e+01
339.000      2.21635e+01
340.000      2.20574e+01
341.000      2.19216e+01
342.000      2.17935e+01
343.000      2.17071e+01
344.000      2.16887e+01
345.000      2.17557e+01
346.000      2.19164e+01
347.000      2.21711e+01
348.000      2.25131e+01
349.000      2.29283e+01
350.000      2.33947e+01
351.000      2.38808e+01
352.000      2.43469e+01
353.000      2.47465e+01
354.000      2.50310e+01
355.000      2.51550e+01
356.000      2.50822e+01
357.000      2.47898e+01
358.000      2.42711e+01
359.000      2.35363e+01
360.000      2.26106e+01
361.000      2.15307e+01
362.000      2.03404e+01
363.000      1.90850e+01
364.000      1.78064e+01
365.000      1.65393e+01
366.000      1.53090e+01
367.000      1.41312e+01
368.000      1.30147e+01
369.000      1.19651e+01
370.000      1.09892e+01
371.000      1.00983e+01
372.000      9.30930e+00
373.000      8.64300e+00
374.000      8.12065e+00
375.000      7.75985e+00
376.000      7.57186e+00
377.000      7.56135e+00
378.000      7.72883e+00
379.000      8.07434e+00
380.000      8.60027e+00
381.000      9.31116e+00
382.000      1.02095e+01
383.000      1.12883e+01
384.000      1.25230e+01
385.000      1.38647e+01
386.000      1.52397e+01
387.000      1.65523e+01
388.000      1.76946e+01
389.000      1.85573e+01
390.000      1.90423e+01
391.000      1.90741e+01
392.000      1.86106e+01
393.000      1.76510e+01
394.000      1.62402e+01
395.000      1.44686e+01
396.000      1.24638e+01
397.000      1.03752e+01
398.000      8.35409e+00
399.000      6.53237e+00
400.000      5.00542e+00
401.000      3.82311e+00
402.000      2.99014e+00
403.000      2.47444e+00
404.000      2.22036e+00
405.000      2.16252e+00
406.000      2.23715e+00
407.000      2.38906e+00
408.000      2.57432e+00
409.000      2.75986e+00
410.000      2.92177e+00
411.000      3.04375e+00
412.000      3.11637e+00
413.000      3.13681e+00
414.000      3.10858e+00
415.000      3.04041e+00
416.000      2.94409e+00
417.000      2.83165e+00
418.000      2.71258e+00
419.000      2.59174e+00
420.000      2.46876e+00
421.000      2.33883e+00
422.000      2.19493e+00
423.000      2.03068e+00
424.000      1.84326e+00
425.000      1.63550e+00
426.000      1.41665e+00
427.000      1.20149e+00
428.000      1.00792e+00
429.000      8.53461e-01
430.000      7.51586e-01
431.000      7.08497e-01
432.000      7.21231e-01
433.000      7.77524e-01
434.000      8.57644e-01
435.000      9.37972e-01
436.000      9.95652e-01
437.000      1.01323e+00
438.000      9.82080e-01
439.000      9.03563e-01
440.000      7.87793e-01
441.000      6.50343e-01
442.000      5.08123e-01
443.000      3.75666e-01
444.000      2.62782e-01
445.000      1.73912e-01
446.000      1.08891e-01
447.000      6.45024e-02
448.000      3.61477e-02
449.000      1.91648e-02
450.000      9.61274e-03
451.000      4.56150e-03
452.000      2.04779e-03
453.000      8.69723e-04
454.000      3.49457e-04
455.000      1.32839e-04
456.000      4.77720e-05
457.000      1.62532e-05
458.000      5.23147e-06
459.000      1.59303e-06
460.000      4.58927e-07
461.000      1.25078e-07
462.000      3.22504e-08
463.000      7.86695e-09
464.000      1.81550e-09
465.000      3.96372e-10
466.000      8.18704e-11
467.000      1.59981e-11
468.000      2.95753e-12
469.000      5.17257e-13
470.000      8.55857e-14
471.000      1.33972e-14
472.000      1.98401e-15
473.000      2.77966e-16
474.000      3.68432e-17
475.000      4.61998e-18
476.000      5.48076e-19
477.000      6.15119e-20
478.000      6.53122e-21
479.000      6.56067e-22
480.000      6.23475e-23
481.000      5.60541e-24
482.000      4.76775e-25
483.000      3.83652e-26
484.000      2.92064e-27
485.000      2.10348e-28
486.000      1.43322e-29
487.000      9.23865e-31
488.000      5.63404e-32
489.000      3.25050e-33
490.000      1.77418e-34
491.000      9.16138e-36
492.000      4.47552e-37
493.000      2.06844e-38
494.000      9.04400e-40
495.000      3.74107e-41
496.000      1.46402e-42
497.000      5.42023e-44
498.000      1.89848e-45
499.000      6.29088e-47
500.000      1.97212e-48
