# Gaussian folded, width=10 cm^-1
# [cm^-1] arbitrary
0.000      3.00000e+00
1.000      2.91796e+00
2.000      2.68508e+00
3.000      2.33749e+00
4.000      1.92514e+00
5.000      1.50000e+00
6.000      1.10570e+00
7.000      7.71085e-01
8.000      5.08727e-01
9.000      3.17529e-01
10.000      1.87500e-01
11.000      1.04746e-01
12.000      5.53590e-02
13.000      2.76795e-02
14.000      1.30932e-02
15.000      5.85938e-03
16.000      2.48073e-03
17.000      9.93748e-04
18.000      3.77045e-04
19.000      1.36912e-04
20.000      5.23807e-05
21.000      3.60031e-05
22.000      6.96259e-05
23.000      1.90033e-04
24.000      5.18365e-04
25.000      1.34735e-03
26.000      3.32118e-03
27.000      7.76152e-03
28.000      1.71995e-02
29.000      3.61499e-02
30.000      7.20830e-02
31.000      1.36404e-01
32.000      2.45034e-01
33.000      4.18011e-01
34.000      6.77450e-01
35.000      1.04344e+00
36.000      1.52809e+00
37.000      2.12864e+00
38.000      2.82176e+00
39.000      3.56116e+00
40.000      4.28047e+00
41.000      4.90206e+00
42.000      5.35049e+00
43.000      5.56729e+00
44.000      5.52338e+00
45.000      5.22534e+00
46.000      4.71377e+00
47.000      4.05438e+00
48.000      3.32429e+00
49.000      2.59763e+00
50.000      1.93381e+00
51.000      1.37101e+00
52.000      9.25296e-01
53.000      5.94269e-01
54.000      3.63198e-01
55.000      2.11569e-01
56.000      1.18490e-01
57.000      6.63061e-02
58.000      4.24850e-02
59.000      4.03223e-02
60.000      5.90421e-02
61.000      1.03686e-01
62.000      1.84805e-01
63.000      3.17637e-01
64.000      5.20235e-01
65.000      8.10153e-01
66.000      1.19971e+00
67.000      1.69060e+00
68.000      2.26924e+00
69.000      2.90465e+00
70.000      3.55011e+00
71.000      4.14893e+00
72.000      4.64320e+00
73.000      4.98336e+00
74.000      5.13615e+00
75.000      5.08927e+00
76.000      4.85199e+00
77.000      4.45244e+00
78.000      3.93252e+00
79.000      3.34176e+00
80.000      2.73100e+00
81.000      2.14684e+00
82.000      1.62736e+00
83.000      1.19986e+00
84.000      8.80868e-01
85.000      6.78031e-01
86.000      5.93194e-01
87.000      6.25317e-01
88.000      7.72173e-01
89.000      1.03017e+00
90.000      1.39237e+00
91.000      1.84537e+00
92.000      2.36641e+00
93.000      2.92187e+00
94.000      3.46838e+00
95.000      3.95708e+00
96.000      4.34072e+00
97.000      4.58218e+00
98.000      4.66249e+00
99.000      4.58592e+00
100.000      4.38048e+00
101.000      4.09338e+00
102.000      3.78270e+00
103.000      3.50746e+00
104.000      3.31859e+00
105.000      3.25269e+00
106.000      3.32917e+00
107.000      3.55060e+00
108.000      3.90547e+00
109.000      4.37246e+00
110.000      4.92559e+00
111.000      5.53906e+00
112.000      6.19087e+00
113.000      6.86417e+00
114.000      7.54618e+00
115.000      8.22520e+00
116.000      8.88722e+00
117.000      9.51353e+00
118.000      1.00801e+01
119.000      1.05588e+01
120.000      1.09208e+01
121.000      1.11404e+01
122.000      1.11999e+01
123.000      1.10947e+01
124.000      1.08372e+01
125.000      1.04580e+01
126.000      1.00025e+01
127.000      9.52335e+00
128.000      9.06793e+00
129.000      8.66702e+00
130.000      8.32706e+00
131.000      8.03058e+00
132.000      7.74540e+00
133.000      7.43991e+00
134.000      7.09887e+00
135.000      6.73355e+00
136.000      6.38163e+00
137.000      6.09671e+00
138.000      5.93114e+00
139.000      5.91861e+00
140.000      6.06287e+00
141.000      6.33641e+00
142.000      6.68883e+00
143.000      7.06111e+00
144.000      7.40042e+00
145.000      7.67075e+00
146.000      7.85706e+00
147.000      7.96331e+00
148.000      8.00658e+00
149.000      8.00992e+00
150.000      7.99610e+00
151.000      7.98328e+00
152.000      7.98352e+00
153.000      8.00398e+00
154.000      8.05065e+00
155.000      8.13308e+00
156.000      8.26813e+00
157.000      8.48011e+00
158.000      8.79611e+00
159.000      9.23714e+00
160.000      9.80781e+00
161.000      1.04889e+01
162.000      1.12365e+01
163.000      1.19884e+01
164.000      1.26769e+01
165.000      1.32430e+01
166.000      1.36473e+01
167.000      1.38741e+01
168.000      1.39292e+01
169.000      1.38317e+01
170.000      1.36050e+01
171.000      1.32702e+01
172.000      1.28425e+01
173.000      1.23304e+01
174.000      1.17377e+01
175.000      1.10663e+01
176.000      1.03190e+01
177.000      9.50346e+00
178.000      8.63490e+00
179.000      7.73934e+00
180.000      6.85409e+00
181.000      6.02545e+00
182.000      5.30300e+00
183.000      4.73124e+00
184.000      4.34063e+00
185.000      4.14051e+00
186.000      4.11609e+00
187.000      4.23072e+00
188.000      4.43312e+00
189.000      4.66765e+00
190.000      4.88505e+00
191.000      5.05107e+00
192.000      5.15102e+00
193.000      5.18965e+00
194.000      5.18702e+00
195.000      5.17171e+00
196.000      5.17327e+00
197.000      5.21575e+00
198.000      5.31337e+00
199.000      5.46917e+00
200.000      5.67620e+00
201.000      5.92054e+00
202.000      6.18505e+00
203.000      6.45245e+00
204.000      6.70729e+00
205.000      6.93635e+00
206.000      7.12812e+00
207.000      7.27171e+00
208.000      7.35605e+00
209.000      7.36986e+00
210.000      7.30278e+00
211.000      7.14779e+00
212.000      6.90485e+00
213.000      6.58449e+00
214.000      6.20996e+00
215.000      5.81601e+00
216.000      5.44357e+00
217.000      5.13087e+00
218.000      4.90374e+00
219.000      4.76818e+00
220.000      4.70792e+00
221.000      4.68792e+00
222.000      4.66273e+00
223.000      4.58693e+00
224.000      4.42496e+00
225.000      4.15793e+00
226.000      3.78634e+00
227.000      3.32868e+00
228.000      2.81669e+00
229.000      2.28857e+00
230.000      1.78176e+00
231.000      1.32684e+00
232.000      9.43575e-01
233.000      6.39915e-01
234.000      4.13355e-01
235.000      2.54051e-01
236.000      1.48430e-01
237.000      8.23735e-02
238.000      4.33949e-02
239.000      2.16890e-02
240.000      1.02800e-02
241.000      4.61885e-03
242.000      1.96667e-03
243.000      7.93369e-04
244.000      3.03161e-04
245.000      1.09711e-04
246.000      3.75965e-05
247.000      1.21987e-05
248.000      3.74747e-06
249.000      1.09118e-06
250.000      3.06850e-07
251.000      1.07396e-07
252.000      1.36310e-07
253.000      4.47570e-07
254.000      1.58790e-06
255.000      5.37746e-06
256.000      1.72389e-05
257.000      5.22880e-05
258.000      1.50055e-04
259.000      4.07446e-04
260.000      1.04684e-03
261.000      2.54516e-03
262.000      5.85619e-03
263.000      1.27540e-02
264.000      2.62966e-02
265.000      5.13460e-02
266.000      9.49863e-02
267.000      1.66585e-01
268.000      2.77215e-01
269.000      4.38286e-01
270.000      6.59510e-01
271.000      9.46782e-01
272.000      1.30084e+00
273.000      1.71750e+00
274.000      2.18956e+00
275.000      2.70957e+00
276.000      3.27144e+00
277.000      3.86920e+00
278.000      4.49229e+00
279.000      5.11915e+00
280.000      5.71286e+00
281.000      6.22343e+00
282.000      6.59877e+00
283.000      6.80295e+00
284.000      6.83575e+00
285.000      6.74552e+00
286.000      6.62854e+00
287.000      6.61250e+00
288.000      6.82743e+00
289.000      7.37237e+00
290.000      8.28767e+00
291.000      9.54141e+00
292.000      1.10335e+01
293.000      1.26158e+01
294.000      1.41211e+01
295.000      1.53931e+01
296.000      1.63099e+01
297.000      1.67973e+01
298.000      1.68332e+01
299.000      1.64470e+01
300.000      1.57153e+01
301.000      1.47558e+01
302.000      1.37159e+01
303.000      1.27549e+01
304.000      1.20176e+01
305.000      1.16064e+01
306.000      1.15565e+01
307.000      1.18254e+01
308.000      1.22994e+01
309.000      1.28195e+01
310.000      1.32192e+01
311.000      1.33662e+01
312.000      1.31967e+01
313.000      1.27346e+01
314.000      1.20888e+01
315.000      1.14318e+01
316.000      1.09609e+01
317.000      1.08540e+01
318.000      1.12289e+01
319.000      1.21160e+01
320.000      1.34526e+01
321.000      1.50988e+01
322.000      1.68714e+01
323.000      1.85852e+01
324.000      2.00924e+01
325.000      2.13084e+01
326.000      2.22197e+01
327.000      2.28733e+01
328.000      2.33527e+01
329.000      2.37486e+01
330.000      2.41322e+01
331.000      2.45380e+01
332.000      2.49587e+01
333.000      2.53521e+01
334.000      2.56561e+01
335.000      2.58077e+01
336.000      2.57591e+01
337.000      2.54886e+01
338.000      2.50052e+01
339.000      2.43462e+01
340.000      2.35704e+01
341.000      2.27496e+01
342.000      2.19584e+01
343.000      2.12656e+01
344.000      2.07259e+01
345.000      2.03746e+01
346.000      2.02253e+01
347.000      2.02713e+01
348.000      2.04906e+01
349.000      2.08524e+01
350.000      2.13242e+01
351.000      2.18766e+01
352.000      2.24853e+01
353.000      2.31310e+01
354.000      2.37972e+01
355.000      2.44672e+01
356.000      2.51209e+01
357.000      2.57329e+01
358.000      2.62704e+01
359.000      2.66934e+01
360.000      2.69560e+01
361.000      2.70115e+01
362.000      2.68181e+01
363.000      2.63470e+01
364.000      2.55886e+01
365.000      2.45556e+01
366.000      2.32827e+01
367.000      2.18214e+01
368.000      2.02324e+01
369.000      1.85774e+01
370.000      1.69126e+01
371.000      1.52861e+01
372.000      1.37377e+01
373.000      1.23024e+01
374.000      1.10135e+01
375.000      9.90409e+00
376.000      9.00737e+00
377.000      8.35438e+00
378.000      7.97211e+00
379.000      7.88239e+00
380.000      8.10209e+00
381.000      8.64324e+00
382.000      9.51140e+00
383.000      1.07009e+01
384.000      1.21880e+01
385.000      1.39248e+01
386.000      1.58394e+01
387.000      1.78426e+01
388.000      1.98431e+01
389.000      2.17629e+01
390.000      2.35458e+01
391.000      2.51538e+01
392.000      2.65500e+01
393.000      2.76780e+01
394.000      2.84469e+01
395.000      2.87354e+01
396.000      2.84151e+01
397.000      2.73888e+01
398.000      2.56278e+01
399.000      2.31959e+01
400.000      2.02480e+01
401.000      1.70061e+01
402.000      1.37175e+01
403.000      1.06112e+01
404.000      7.86275e+00
405.000      5.57565e+00
406.000      3.78092e+00
407.000      2.45064e+00
408.000      1.51878e+00
409.000      9.02967e-01
410.000      5.22033e-01
411.000      3.07525e-01
412.000      2.08957e-01
413.000      1.94221e-01
414.000      2.46800e-01
415.000      3.61222e-01
416.000      5.37764e-01
417.000      7.77203e-01
418.000      1.07638e+00
419.000      1.42540e+00
420.000      1.80713e+00
421.000      2.19922e+00
422.000      2.57791e+00
423.000      2.92246e+00
424.000      3.21847e+00
425.000      3.45903e+00
426.000      3.64330e+00
427.000      3.77337e+00
428.000      3.85067e+00
429.000      3.87334e+00
430.000      3.83566e+00
431.000      3.72958e+00
432.000      3.54798e+00
433.000      3.28873e+00
434.000      2.95787e+00
435.000      2.57115e+00
436.000      2.15275e+00
437.000      1.73186e+00
438.000      1.33772e+00
439.000      9.95066e-01
440.000      7.20984e-01
441.000      5.24048e-01
442.000      4.05248e-01
443.000      3.59837e-01
444.000      3.78991e-01
445.000      4.50666e-01
446.000      5.59710e-01
447.000      6.87914e-01
448.000      8.14807e-01
449.000      9.19719e-01
450.000      9.84912e-01
451.000      9.98916e-01
452.000      9.58870e-01
453.000      8.70918e-01
454.000      7.48410e-01
455.000      6.08456e-01
456.000      4.67995e-01
457.000      3.40543e-01
458.000      2.34434e-01
459.000      1.52682e-01
460.000      9.40744e-02
461.000      5.48370e-02
462.000      3.02408e-02
463.000      1.57772e-02
464.000      7.78727e-03
465.000      3.63628e-03
466.000      1.60638e-03
467.000      6.71360e-04
468.000      2.65449e-04
469.000      9.92941e-05
470.000      3.51385e-05
471.000      1.17642e-05
472.000      3.72612e-06
473.000      1.11653e-06
474.000      3.16520e-07
475.000      8.48887e-08
476.000      2.15385e-08
477.000      5.17011e-09
478.000      1.17409e-09
479.000      2.52243e-10
480.000      5.12691e-11
481.000      9.85848e-12
482.000      1.79342e-12
483.000      3.08653e-13
484.000      5.02548e-14
485.000      7.74109e-15
486.000      1.12809e-15
487.000      1.55526e-16
488.000      2.02853e-17
489.000      2.50309e-18
490.000      2.92205e-19
491.000      3.22714e-20
492.000      3.37183e-21
493.000      3.33297e-22
494.000      3.11684e-23
495.000      2.75749e-24
496.000      2.30798e-25
497.000      1.82755e-26
498.000      1.36906e-27
499.000      9.70269e-29
500.000      6.50550e-30
