# Gaussian folded, width=10 cm^-1
# [cm^-1] arbitrary
0.000      3.00000e+00
1.000      2.91796e+00
2.000      2.68508e+00
3.000      2.33749e+00
4.000      1.92514e+00
5.000      1.50000e+00
6.000      1.10570e+00
7.000      7.71085e-01
8.000      5.08727e-01
9.000      3.17529e-01
10.000      1.87500e-01
11.000      1.04746e-01
12.000      5.53592e-02
13.000      2.76800e-02
14.000      1.30950e-02
15.000      5.86544e-03
16.000      2.50061e-03
17.000      1.05552e-03
18.000      5.58920e-04
19.000      6.44046e-04
20.000      1.39171e-03
21.000      3.38626e-03
22.000      8.00740e-03
23.000      1.80034e-02
24.000      3.83798e-02
25.000      7.75580e-02
26.000      1.48578e-01
27.000      2.69857e-01
28.000      4.64739e-01
29.000      7.58980e-01
30.000      1.17555e+00
31.000      1.72698e+00
32.000      2.40659e+00
33.000      3.18145e+00
34.000      3.99009e+00
35.000      4.74791e+00
36.000      5.36045e+00
37.000      5.74238e+00
38.000      5.83686e+00
39.000      5.62940e+00
40.000      5.15150e+00
41.000      4.47282e+00
42.000      3.68462e+00
43.000      2.87986e+00
44.000      2.13593e+00
45.000      1.50441e+00
46.000      1.00906e+00
47.000      6.50795e-01
48.000      4.16590e-01
49.000      2.88972e-01
50.000      2.53825e-01
51.000      3.05072e-01
52.000      4.45919e-01
53.000      6.86776e-01
54.000      1.04036e+00
55.000      1.51474e+00
56.000      2.10576e+00
57.000      2.79052e+00
58.000      3.52432e+00
59.000      4.24272e+00
60.000      4.86941e+00
61.000      5.32884e+00
62.000      5.56089e+00
63.000      5.53355e+00
64.000      5.25023e+00
65.000      4.74922e+00
66.000      4.09572e+00
67.000      3.36861e+00
68.000      2.64602e+00
69.000      1.99343e+00
70.000      1.45699e+00
71.000      1.06262e+00
72.000      8.19591e-01
73.000      7.26288e-01
74.000      7.75529e-01
75.000      9.57910e-01
76.000      1.26257e+00
77.000      1.67594e+00
78.000      2.17950e+00
79.000      2.74779e+00
80.000      3.34743e+00
81.000      3.93787e+00
82.000      4.47428e+00
83.000      4.91279e+00
84.000      5.21809e+00
85.000      5.37224e+00
86.000      5.38281e+00
87.000      5.28736e+00
88.000      5.15176e+00
89.000      5.06103e+00
90.000      5.10401e+00
91.000      5.35527e+00
92.000      5.85900e+00
93.000      6.61915e+00
94.000      7.59835e+00
95.000      8.72540e+00
96.000      9.90898e+00
97.000      1.10538e+01
98.000      1.20754e+01
99.000      1.29105e+01
100.000      1.35215e+01
101.000      1.38959e+01
102.000      1.40408e+01
103.000      1.39760e+01
104.000      1.37274e+01
105.000      1.33215e+01
106.000      1.27828e+01
107.000      1.21335e+01
108.000      1.13953e+01
109.000      1.05922e+01
110.000      9.75300e+00
111.000      8.91292e+00
112.000      8.11260e+00
113.000      7.39475e+00
114.000      6.79901e+00
115.000      6.35671e+00
116.000      6.08725e+00
117.000      5.99721e+00
118.000      6.08250e+00
119.000      6.33225e+00
120.000      6.73284e+00
121.000      7.27073e+00
122.000      7.93312e+00
123.000      8.70679e+00
124.000      9.57572e+00
125.000      1.05185e+01
126.000      1.15062e+01
127.000      1.25020e+01
128.000      1.34622e+01
129.000      1.43391e+01
130.000      1.50863e+01
131.000      1.56646e+01
132.000      1.60471e+01
133.000      1.62235e+01
134.000      1.62009e+01
135.000      1.60020e+01
136.000      1.56602e+01
137.000      1.52144e+01
138.000      1.47025e+01
139.000      1.41569e+01
140.000      1.36023e+01
141.000      1.30546e+01
142.000      1.25229e+01
143.000      1.20111e+01
144.000      1.15212e+01
145.000      1.10554e+01
146.000      1.06183e+01
147.000      1.02174e+01
148.000      9.86291e+00
149.000      9.56644e+00
150.000      9.33797e+00
151.000      9.18313e+00
152.000      9.10095e+00
153.000      9.08329e+00
154.000      9.11619e+00
155.000      9.18259e+00
156.000      9.26534e+00
157.000      9.34934e+00
158.000      9.42233e+00
159.000      9.47436e+00
160.000      9.49714e+00
161.000      9.48375e+00
162.000      9.42942e+00
163.000      9.33285e+00
164.000      9.19732e+00
165.000      9.03068e+00
166.000      8.84414e+00
167.000      8.65035e+00
168.000      8.46173e+00
169.000      8.28980e+00
170.000      8.14582e+00
171.000      8.04171e+00
172.000      7.99021e+00
173.000      8.00307e+00
174.000      8.08732e+00
175.000      8.24081e+00
176.000      8.44906e+00
177.000      8.68552e+00
178.000      8.91622e+00
179.000      9.10787e+00
180.000      9.23693e+00
181.000      9.29652e+00
182.000      9.29850e+00
183.000      9.26988e+00
184.000      9.24482e+00
185.000      9.25493e+00
186.000      9.32099e+00
187.000      9.44856e+00
188.000      9.62839e+00
189.000      9.84084e+00
190.000      1.00627e+01
191.000      1.02738e+01
192.000      1.04622e+01
193.000      1.06262e+01
194.000      1.07732e+01
195.000      1.09162e+01
196.000      1.10694e+01
197.000      1.12433e+01
198.000      1.14410e+01
199.000      1.16561e+01
200.000      1.18730e+01
201.000      1.20690e+01
202.000      1.22184e+01
203.000      1.22974e+01
204.000      1.22897e+01
205.000      1.21906e+01
206.000      1.20085e+01
207.000      1.17638e+01
208.000      1.14843e+01
209.000      1.11994e+01
210.000      1.09336e+01
211.000      1.07022e+01
212.000      1.05099e+01
213.000      1.03516e+01
214.000      1.02164e+01
215.000      1.00919e+01
216.000      9.96884e+00
217.000      9.84466e+00
218.000      9.72443e+00
219.000      9.61955e+00
220.000      9.54385e+00
221.000      9.50842e+00
222.000      9.51672e+00
223.000      9.56203e+00
224.000      9.62826e+00
225.000      9.69414e+00
226.000      9.73945e+00
227.000      9.75109e+00
228.000      9.72724e+00
229.000      9.67835e+00
230.000      9.62511e+00
231.000      9.59409e+00
232.000      9.61222e+00
233.000      9.70104e+00
234.000      9.87177e+00
235.000      1.01219e+01
236.000      1.04342e+01
237.000      1.07785e+01
238.000      1.11169e+01
239.000      1.14102e+01
240.000      1.16253e+01
241.000      1.17414e+01
242.000      1.17529e+01
243.000      1.16685e+01
244.000      1.15079e+01
245.000      1.12955e+01
246.000      1.10551e+01
247.000      1.08046e+01
248.000      1.05555e+01
249.000      1.03129e+01
250.000      1.00804e+01
251.000      9.86293e+00
252.000      9.67037e+00
253.000      9.51676e+00
254.000      9.41719e+00
255.000      9.38264e+00
256.000      9.41496e+00
257.000      9.50436e+00
258.000      9.63051e+00
259.000      9.76661e+00
260.000      9.88502e+00
261.000      9.96205e+00
262.000      9.98081e+00
263.000      9.93199e+00
264.000      9.81339e+00
265.000      9.62917e+00
266.000      9.38939e+00
267.000      9.10929e+00
268.000      8.80781e+00
269.000      8.50482e+00
270.000      8.21760e+00
271.000      7.95757e+00
272.000      7.72864e+00
273.000      7.52791e+00
274.000      7.34853e+00
275.000      7.18361e+00
276.000      7.02947e+00
277.000      6.88694e+00
278.000      6.76019e+00
279.000      6.65409e+00
280.000      6.57165e+00
281.000      6.51314e+00
282.000      6.47737e+00
283.000      6.46443e+00
284.000      6.47798e+00
285.000      6.52561e+00
286.000      6.61623e+00
287.000      6.75543e+00
288.000      6.94047e+00
289.000      7.15731e+00
290.000      7.38106e+00
291.000      7.58037e+00
292.000      7.72439e+00
293.000      7.79017e+00
294.000      7.76815e+00
295.000      7.66387e+00
296.000      7.49566e+00
297.000      7.28943e+00
298.000      7.07250e+00
299.000      6.86848e+00
300.000      6.69421e+00
301.000      6.55870e+00
302.000      6.46334e+00
303.000      6.40269e+00
304.000      6.36538e+00
305.000      6.33571e+00
306.000      6.29616e+00
307.000      6.23099e+00
308.000      6.13053e+00
309.000      5.99507e+00
310.000      5.83725e+00
311.000      5.68174e+00
312.000      5.56205e+00
313.000      5.51480e+00
314.000      5.57295e+00
315.000      5.75979e+00
316.000      6.08543e+00
317.000      6.54630e+00
318.000      7.12720e+00
319.000      7.80450e+00
320.000      8.54886e+00
321.000      9.32703e+00
322.000      1.01032e+01
323.000      1.08410e+01
324.000      1.15077e+01
325.000      1.20792e+01
326.000      1.25467e+01
327.000      1.29203e+01
328.000      1.32285e+01
329.000      1.35142e+01
330.000      1.38249e+01
331.000      1.42027e+01
332.000      1.46750e+01
333.000      1.52483e+01
334.000      1.59080e+01
335.000      1.66211e+01
336.000      1.73442e+01
337.000      1.80310e+01
338.000      1.86410e+01
339.000      1.91456e+01
340.000      1.95321e+01
341.000      1.98039e+01
342.000      1.99784e+01
343.000      2.00820e+01
344.000      2.01437e+01
345.000      2.01895e+01
346.000      2.02377e+01
347.000      2.02961e+01
348.000      2.03617e+01
349.000      2.04219e+01
350.000      2.04567e+01
351.000      2.04414e+01
352.000      2.03506e+01
353.000      2.01604e+01
354.000      1.98514e+01
355.000      1.94110e+01
356.000      1.88348e+01
357.000      1.81264e+01
358.000      1.72974e+01
359.000      1.63660e+01
360.000      1.53560e+01
361.000      1.42955e+01
362.000      1.32155e+01
363.000      1.21484e+01
364.000      1.11257e+01
365.000      1.01756e+01
366.000      9.32049e+00
367.000      8.57532e+00
368.000      7.94723e+00
369.000      7.43649e+00
370.000      7.03797e+00
371.000      6.74263e+00
372.000      6.53868e+00
373.000      6.41262e+00
374.000      6.35070e+00
375.000      6.34094e+00
376.000      6.37559e+00
377.000      6.45301e+00
378.000      6.57797e+00
379.000      6.75968e+00
380.000      7.00760e+00
381.000      7.32612e+00
382.000      7.70940e+00
383.000      8.13825e+00
384.000      8.57995e+00
385.000      8.99148e+00
386.000      9.32550e+00
387.000      9.53770e+00
388.000      9.59397e+00
389.000      9.47575e+00
390.000      9.18270e+00
391.000      8.73220e+00
392.000      8.15620e+00
393.000      7.49614e+00
394.000      6.79725e+00
395.000      6.10328e+00
396.000      5.45231e+00
397.000      4.87393e+00
398.000      4.38757e+00
399.000      4.00164e+00
400.000      3.71322e+00
401.000      3.50857e+00
402.000      3.36475e+00
403.000      3.25278e+00
404.000      3.14257e+00
405.000      3.00863e+00
406.000      2.83552e+00
407.000      2.62124e+00
408.000      2.37715e+00
409.000      2.12421e+00
410.000      1.88632e+00
411.000      1.68294e+00
412.000      1.52334e+00
413.000      1.40445e+00
414.000      1.31287e+00
415.000      1.23005e+00
416.000      1.13863e+00
417.000      1.02764e+00
418.000      8.94962e-01
419.000      7.46663e-01
420.000      5.93923e-01
421.000      4.49069e-01
422.000      3.22153e-01
423.000      2.19020e-01
424.000      1.41020e-01
425.000      8.59547e-02
426.000      4.95841e-02
427.000      2.70665e-02
428.000      1.39798e-02
429.000      6.83164e-03
430.000      3.15855e-03
431.000      1.38160e-03
432.000      5.71746e-04
433.000      2.23844e-04
434.000      8.29104e-05
435.000      2.90530e-05
436.000      9.63148e-06
437.000      3.02074e-06
438.000      8.96295e-07
439.000      2.51598e-07
440.000      6.68159e-08
441.000      1.67869e-08
442.000      3.99006e-09
443.000      8.97235e-10
444.000      1.90875e-10
445.000      3.84160e-11
446.000      7.31461e-12
447.000      1.31761e-12
448.000      2.24544e-13
449.000      3.62022e-14
450.000      5.52184e-15
451.000      7.96804e-16
452.000      1.08777e-16
453.000      1.40488e-17
454.000      1.71656e-18
455.000      1.98425e-19
456.000      2.16996e-20
457.000      2.24504e-21
458.000      2.19743e-22
459.000      2.03481e-23
460.000      1.78258e-24
461.000      1.47738e-25
462.000      1.15839e-26
463.000      8.59274e-28
464.000      6.03014e-29
465.000      4.00351e-30
466.000      2.51462e-31
467.000      1.49424e-32
468.000      8.40016e-34
469.000      4.46758e-35
470.000      2.24788e-36
471.000      1.07002e-37
472.000      4.81870e-39
473.000      2.05298e-40
474.000      8.27478e-42
475.000      3.15534e-43
476.000      1.13829e-44
477.000      3.88488e-46
478.000      1.25436e-47
479.000      3.83160e-49
480.000      1.10728e-50
481.000      3.02729e-52
482.000      7.83008e-54
483.000      1.91601e-55
484.000      4.43552e-57
485.000      9.71428e-59
486.000      2.01277e-60
487.000      3.94543e-62
488.000      7.31667e-64
489.000      1.28366e-65
490.000      2.13061e-67
491.000      3.34560e-69
492.000      4.97008e-71
493.000      6.98505e-73
494.000      9.28739e-75
495.000      1.16825e-76
496.000      1.39026e-78
497.000      1.56521e-80
498.000      1.66712e-82
499.000      1.67988e-84
500.000      1.60143e-86
