# Gaussian folded, width=10 cm^-1
# [cm^-1] arbitrary
0.000      3.00000e+00
1.000      2.91796e+00
2.000      2.68508e+00
3.000      2.33749e+00
4.000      1.92514e+00
5.000      1.50000e+00
6.000      1.10570e+00
7.000      7.71085e-01
8.000      5.08727e-01
9.000      3.17530e-01
10.000      1.87500e-01
11.000      1.04746e-01
12.000      5.53610e-02
13.000      2.76863e-02
14.000      1.31152e-02
15.000      5.92706e-03
16.000      2.67850e-03
17.000      1.54138e-03
18.000      1.81418e-03
19.000      3.71149e-03
20.000      8.48009e-03
21.000      1.88718e-02
22.000      3.99792e-02
23.000      8.03593e-02
24.000      1.53198e-01
25.000      2.77012e-01
26.000      4.75131e-01
27.000      7.73101e-01
28.000      1.19345e+00
29.000      1.74802e+00
30.000      2.42938e+00
31.000      3.20387e+00
32.000      4.00959e+00
33.000      4.76196e+00
34.000      5.36708e+00
35.000      5.74062e+00
36.000      5.82699e+00
37.000      5.61288e+00
38.000      5.13069e+00
39.000      4.45054e+00
40.000      3.66386e+00
41.000      2.86369e+00
42.000      2.12791e+00
43.000      1.50960e+00
44.000      1.03562e+00
45.000      7.12119e-01
46.000      5.33480e-01
47.000      4.91279e-01
48.000      5.80364e-01
49.000      8.00637e-01
50.000      1.15438e+00
51.000      1.64017e+00
52.000      2.24538e+00
53.000      2.93969e+00
54.000      3.67239e+00
55.000      4.37502e+00
56.000      4.97013e+00
57.000      5.38438e+00
58.000      5.56295e+00
59.000      5.48122e+00
60.000      5.15028e+00
61.000      4.61457e+00
62.000      3.94238e+00
63.000      3.21208e+00
64.000      2.49813e+00
65.000      1.86055e+00
66.000      1.34004e+00
67.000      9.58955e-01
68.000      7.26588e-01
69.000      6.45957e-01
70.000      7.19311e-01
71.000      9.50108e-01
72.000      1.34056e+00
73.000      1.88543e+00
74.000      2.56437e+00
75.000      3.33606e+00
76.000      4.13767e+00
77.000      4.89174e+00
78.000      5.52012e+00
79.000      5.96202e+00
80.000      6.19075e+00
81.000      6.22363e+00
82.000      6.12147e+00
83.000      5.97707e+00
84.000      5.89594e+00
85.000      5.97445e+00
86.000      6.28123e+00
87.000      6.84572e+00
88.000      7.65572e+00
89.000      8.66302e+00
90.000      9.79478e+00
91.000      1.09676e+01
92.000      1.21008e+01
93.000      1.31266e+01
94.000      1.39951e+01
95.000      1.46738e+01
96.000      1.51430e+01
97.000      1.53892e+01
98.000      1.54009e+01
99.000      1.51685e+01
100.000      1.46886e+01
101.000      1.39725e+01
102.000      1.30528e+01
103.000      1.19865e+01
104.000      1.08509e+01
105.000      9.73345e+00
106.000      8.71844e+00
107.000      7.87519e+00
108.000      7.25017e+00
109.000      6.86531e+00
110.000      6.72117e+00
111.000      6.80270e+00
112.000      7.08496e+00
113.000      7.53727e+00
114.000      8.12573e+00
115.000      8.81492e+00
116.000      9.57032e+00
117.000      1.03616e+01
118.000      1.11667e+01
119.000      1.19740e+01
120.000      1.27824e+01
121.000      1.35965e+01
122.000      1.44189e+01
123.000      1.52417e+01
124.000      1.60409e+01
125.000      1.67746e+01
126.000      1.73897e+01
127.000      1.78312e+01
128.000      1.80550e+01
129.000      1.80370e+01
130.000      1.77770e+01
131.000      1.72970e+01
132.000      1.66344e+01
133.000      1.58348e+01
134.000      1.49458e+01
135.000      1.40144e+01
136.000      1.30855e+01
137.000      1.22029e+01
138.000      1.14079e+01
139.000      1.07371e+01
140.000      1.02196e+01
141.000      9.87340e+00
142.000      9.70352e+00
143.000      9.70051e+00
144.000      9.84028e+00
145.000      1.00851e+01
146.000      1.03861e+01
147.000      1.06878e+01
148.000      1.09345e+01
149.000      1.10771e+01
150.000      1.10802e+01
151.000      1.09266e+01
152.000      1.06193e+01
153.000      1.01797e+01
154.000      9.64343e+00
155.000      9.05416e+00
156.000      8.45606e+00
157.000      7.88715e+00
158.000      7.37443e+00
159.000      6.93225e+00
160.000      6.56442e+00
161.000      6.26955e+00
162.000      6.04774e+00
163.000      5.90611e+00
164.000      5.86061e+00
165.000      5.93302e+00
166.000      6.14361e+00
167.000      6.50239e+00
168.000      7.00224e+00
169.000      7.61707e+00
170.000      8.30603e+00
171.000      9.02226e+00
172.000      9.72313e+00
173.000      1.03780e+01
174.000      1.09715e+01
175.000      1.15015e+01
176.000      1.19740e+01
177.000      1.23966e+01
178.000      1.27733e+01
179.000      1.31023e+01
180.000      1.33766e+01
181.000      1.35870e+01
182.000      1.37263e+01
183.000      1.37933e+01
184.000      1.37960e+01
185.000      1.37518e+01
186.000      1.36866e+01
187.000      1.36312e+01
188.000      1.36176e+01
189.000      1.36756e+01
190.000      1.38294e+01
191.000      1.40959e+01
192.000      1.44828e+01
193.000      1.49874e+01
194.000      1.55960e+01
195.000      1.62838e+01
196.000      1.70162e+01
197.000      1.77511e+01
198.000      1.84426e+01
199.000      1.90443e+01
200.000      1.95133e+01
201.000      1.98123e+01
202.000      1.99113e+01
203.000      1.97874e+01
204.000      1.94258e+01
205.000      1.88204e+01
206.000      1.79762e+01
207.000      1.69117e+01
208.000      1.56608e+01
209.000      1.42741e+01
210.000      1.28170e+01
211.000      1.13657e+01
212.000      1.00014e+01
213.000      8.80209e+00
214.000      7.83509e+00
215.000      7.14906e+00
216.000      6.76830e+00
217.000      6.68976e+00
218.000      6.88380e+00
219.000      7.29876e+00
220.000      7.86843e+00
221.000      8.52138e+00
222.000      9.19021e+00
223.000      9.81954e+00
224.000      1.03715e+01
225.000      1.08284e+01
226.000      1.11927e+01
227.000      1.14838e+01
228.000      1.17331e+01
229.000      1.19771e+01
230.000      1.22504e+01
231.000      1.25790e+01
232.000      1.29761e+01
233.000      1.34410e+01
234.000      1.39611e+01
235.000      1.45169e+01
236.000      1.50866e+01
237.000      1.56504e+01
238.000      1.61921e+01
239.000      1.66982e+01
240.000      1.71558e+01
241.000      1.75515e+01
242.000      1.78709e+01
243.000      1.81001e+01
244.000      1.82272e+01
245.000      1.82443e+01
246.000      1.81475e+01
247.000      1.79360e+01
248.000      1.76106e+01
249.000      1.71733e+01
250.000      1.66276e+01
251.000      1.59803e+01
252.000      1.52428e+01
253.000      1.44321e+01
254.000      1.35683e+01
255.000      1.26717e+01
256.000      1.17592e+01
257.000      1.08433e+01
258.000      9.93233e+00
259.000      9.03376e+00
260.000      8.15750e+00
261.000      7.31766e+00
262.000      6.53213e+00
263.000      5.82033e+00
264.000      5.20040e+00
265.000      4.68775e+00
266.000      4.29582e+00
267.000      4.03891e+00
268.000      3.93594e+00
269.000      4.01282e+00
270.000      4.30171e+00
271.000      4.83588e+00
272.000      5.64061e+00
273.000      6.72203e+00
274.000      8.05703e+00
275.000      9.58791e+00
276.000      1.12245e+01
277.000      1.28549e+01
278.000      1.43634e+01
279.000      1.56509e+01
280.000      1.66528e+01
281.000      1.73480e+01
282.000      1.77560e+01
283.000      1.79234e+01
284.000      1.79040e+01
285.000      1.77407e+01
286.000      1.74543e+01
287.000      1.70441e+01
288.000      1.64971e+01
289.000      1.58029e+01
290.000      1.49648e+01
291.000      1.40058e+01
292.000      1.29652e+01
293.000      1.18904e+01
294.000      1.08265e+01
295.000      9.80921e+00
296.000      8.86252e+00
297.000      8.00041e+00
298.000      7.23074e+00
299.000      6.55830e+00
300.000      5.98570e+00
301.000      5.51216e+00
302.000      5.13141e+00
303.000      4.83075e+00
304.000      4.59231e+00
305.000      4.39654e+00
306.000      4.22676e+00
307.000      4.07294e+00
308.000      3.93302e+00
309.000      3.81133e+00
310.000      3.71455e+00
311.000      3.64706e+00
312.000      3.60716e+00
313.000      3.58556e+00
314.000      3.56628e+00
315.000      3.52945e+00
316.000      3.45529e+00
317.000      3.32832e+00
318.000      3.14138e+00
319.000      2.89881e+00
320.000      2.61808e+00
321.000      2.32932e+00
322.000      2.07225e+00
323.000      1.89070e+00
324.000      1.82572e+00
325.000      1.90864e+00
326.000      2.15573e+00
327.000      2.56576e+00
328.000      3.12151e+00
329.000      3.79500e+00
330.000      4.55533e+00
331.000      5.37736e+00
332.000      6.24835e+00
333.000      7.17062e+00
334.000      8.15869e+00
335.000      9.23156e+00
336.000      1.04020e+01
337.000      1.16662e+01
338.000      1.29964e+01
339.000      1.43397e+01
340.000      1.56227e+01
341.000      1.67621e+01
342.000      1.76771e+01
343.000      1.83027e+01
344.000      1.85992e+01
345.000      1.85566e+01
346.000      1.81931e+01
347.000      1.75495e+01
348.000      1.66805e+01
349.000      1.56465e+01
350.000      1.45078e+01
351.000      1.33211e+01
352.000      1.21395e+01
353.000      1.10116e+01
354.000      9.98193e+00
355.000      9.08720e+00
356.000      8.35303e+00
357.000      7.78946e+00
358.000      7.38851e+00
359.000      7.12474e+00
360.000      6.95913e+00
361.000      6.84561e+00
362.000      6.73863e+00
363.000      6.59990e+00
364.000      6.40307e+00
365.000      6.13559e+00
366.000      5.79811e+00
367.000      5.40223e+00
368.000      4.96765e+00
369.000      4.51959e+00
370.000      4.08665e+00
371.000      3.69921e+00
372.000      3.38771e+00
373.000      3.18037e+00
374.000      3.10017e+00
375.000      3.16111e+00
376.000      3.36434e+00
377.000      3.69541e+00
378.000      4.12333e+00
379.000      4.60255e+00
380.000      5.07766e+00
381.000      5.49044e+00
382.000      5.78808e+00
383.000      5.93111e+00
384.000      5.89953e+00
385.000      5.69577e+00
386.000      5.34370e+00
387.000      4.88373e+00
388.000      4.36495e+00
389.000      3.83621e+00
390.000      3.33849e+00
391.000      2.89996e+00
392.000      2.53467e+00
393.000      2.24411e+00
394.000      2.02040e+00
395.000      1.84968e+00
396.000      1.71500e+00
397.000      1.59866e+00
398.000      1.48436e+00
399.000      1.35947e+00
400.000      1.21692e+00
401.000      1.05629e+00
402.000      8.83373e-01
403.000      7.08253e-01
404.000      5.42366e-01
405.000      3.95605e-01
406.000      2.74306e-01
407.000      1.80550e-01
408.000      1.12696e-01
409.000      6.66593e-02
410.000      3.73455e-02
411.000      1.98101e-02
412.000      9.94722e-03
413.000      4.72723e-03
414.000      2.12594e-03
415.000      9.04686e-04
416.000      3.64268e-04
417.000      1.38772e-04
418.000      5.00185e-05
419.000      1.70568e-05
420.000      5.50294e-06
421.000      1.67965e-06
422.000      4.85031e-07
423.000      1.32508e-07
424.000      3.42479e-08
425.000      8.37428e-09
426.000      1.93722e-09
427.000      4.23965e-10
428.000      8.77808e-11
429.000      1.71944e-11
430.000      3.18634e-12
431.000      5.58619e-13
432.000      9.26524e-14
433.000      1.45384e-14
434.000      2.15820e-15
435.000      3.03100e-16
436.000      4.02715e-17
437.000      5.06206e-18
438.000      6.01970e-19
439.000      6.77235e-20
440.000      7.20811e-21
441.000      7.25808e-22
442.000      6.91415e-23
443.000      6.23124e-24
444.000      5.31284e-25
445.000      4.28546e-26
446.000      3.27028e-27
447.000      2.36097e-28
448.000      1.61255e-29
449.000      1.04197e-30
450.000      6.36961e-32
451.000      3.68374e-33
452.000      2.01550e-34
453.000      1.04326e-35
454.000      5.10884e-37
455.000      2.36684e-38
456.000      1.03737e-39
457.000      4.30144e-41
458.000      1.68738e-42
459.000      6.26224e-44
460.000      2.19869e-45
461.000      7.30325e-47
462.000      2.29502e-48
463.000      6.82296e-50
464.000      1.91901e-51
465.000      5.10622e-53
466.000      1.28540e-54
467.000      3.06124e-56
468.000      6.89719e-58
469.000      1.47016e-59
470.000      2.96466e-61
471.000      5.65592e-63
472.000      1.02082e-64
473.000      1.74306e-66
474.000      2.81574e-68
475.000      4.30320e-70
476.000      6.22167e-72
477.000      8.51022e-74
478.000      1.10126e-75
479.000      1.34822e-77
480.000      1.56152e-79
481.000      1.71100e-81
482.000      1.77367e-83
483.000      1.73945e-85
484.000      1.61387e-87
485.000      1.41658e-89
486.000      1.17634e-91
487.000      9.24153e-94
488.000      6.86865e-96
489.000      4.82965e-98
490.000     3.21276e-100
491.000     2.02189e-102
492.000     1.20380e-104
493.000     6.78064e-107
494.000     3.61330e-109
495.000     1.82160e-111
496.000     8.68804e-114
497.000     3.92019e-116
498.000     1.67344e-118
499.000     6.75821e-121
500.000     2.58208e-123
