# Gaussian folded, width=10 cm^-1
# [cm^-1] arbitrary
0.000      3.00000e+00
1.000      2.91796e+00
2.000      2.68508e+00
3.000      2.33749e+00
4.000      1.92514e+00
5.000      1.50000e+00
6.000      1.10570e+00
7.000      7.71085e-01
8.000      5.08727e-01
9.000      3.17529e-01
10.000      1.87500e-01
11.000      1.04746e-01
12.000      5.53590e-02
13.000      2.76795e-02
14.000      1.30932e-02
15.000      5.85938e-03
16.000      2.48073e-03
17.000      9.93731e-04
18.000      3.76982e-04
19.000      1.36690e-04
20.000      5.16516e-05
21.000      3.37359e-05
22.000      6.29798e-05
23.000      1.71677e-04
24.000      4.70634e-04
25.000      1.23061e-03
26.000      3.05298e-03
27.000      7.18357e-03
28.000      1.60338e-02
29.000      3.39552e-02
30.000      6.82416e-02
31.000      1.30188e-01
32.000      2.35822e-01
33.000      4.05694e-01
34.000      6.63019e-01
35.000      1.02963e+00
36.000      1.51973e+00
37.000      2.13251e+00
38.000      2.84543e+00
39.000      3.61090e+00
40.000      4.35881e+00
41.000      5.00559e+00
42.000      5.46907e+00
43.000      5.68537e+00
44.000      5.62326e+00
45.000      5.29149e+00
46.000      4.73681e+00
47.000      4.03323e+00
48.000      3.26590e+00
49.000      2.51448e+00
50.000      1.84031e+00
51.000      1.28005e+00
52.000      8.45980e-01
53.000      5.31175e-01
54.000      3.16984e-01
55.000      1.80289e-01
56.000      9.90428e-02
57.000      5.55925e-02
58.000      3.81260e-02
59.000      4.09555e-02
60.000      6.43018e-02
61.000      1.13948e-01
62.000      2.00740e-01
63.000      3.39593e-01
64.000      5.47536e-01
65.000      8.40507e-01
66.000      1.22902e+00
67.000      1.71344e+00
68.000      2.28018e+00
69.000      2.90002e+00
70.000      3.52974e+00
71.000      4.11696e+00
72.000      4.60738e+00
73.000      4.95284e+00
74.000      5.11853e+00
75.000      5.08796e+00
76.000      4.86519e+00
77.000      4.47394e+00
78.000      3.95402e+00
79.000      3.35554e+00
80.000      2.73180e+00
81.000      2.13225e+00
82.000      1.59677e+00
83.000      1.15272e+00
84.000      8.15235e-01
85.000      5.90241e-01
86.000      4.79187e-01
87.000      4.83516e-01
88.000      6.07232e-01
89.000      8.56333e-01
90.000      1.23487e+00
91.000      1.73859e+00
92.000      2.34827e+00
93.000      3.02548e+00
94.000      3.71333e+00
95.000      4.34325e+00
96.000      4.84707e+00
97.000      5.17112e+00
98.000      5.28831e+00
99.000      5.20444e+00
100.000      4.95687e+00
101.000      4.60619e+00
102.000      4.22379e+00
103.000      3.87873e+00
104.000      3.62700e+00
105.000      3.50509e+00
106.000      3.52833e+00
107.000      3.69353e+00
108.000      3.98477e+00
109.000      4.38062e+00
110.000      4.86051e+00
111.000      5.40822e+00
112.000      6.01125e+00
113.000      6.65625e+00
114.000      7.32297e+00
115.000      7.97967e+00
116.000      8.58340e+00
117.000      9.08639e+00
118.000      9.44733e+00
119.000      9.64393e+00
120.000      9.68211e+00
121.000      9.59758e+00
122.000      9.44838e+00
123.000      9.29975e+00
124.000      9.20601e+00
125.000      9.19508e+00
126.000      9.26101e+00
127.000      9.36680e+00
128.000      9.45619e+00
129.000      9.47027e+00
130.000      9.36320e+00
131.000      9.11273e+00
132.000      8.72381e+00
133.000      8.22620e+00
134.000      7.66854e+00
135.000      7.11099e+00
136.000      6.61726e+00
137.000      6.24600e+00
138.000      6.04150e+00
139.000      6.02490e+00
140.000      6.18841e+00
141.000      6.49532e+00
142.000      6.88700e+00
143.000      7.29565e+00
144.000      7.65927e+00
145.000      7.93408e+00
146.000      8.10071e+00
147.000      8.16309e+00
148.000      8.14178e+00
149.000      8.06552e+00
150.000      7.96441e+00
151.000      7.86715e+00
152.000      7.80159e+00
153.000      7.79666e+00
154.000      7.88249e+00
155.000      8.08709e+00
156.000      8.42958e+00
157.000      8.91217e+00
158.000      9.51436e+00
159.000      1.01923e+01
160.000      1.08846e+01
161.000      1.15242e+01
162.000      1.20522e+01
163.000      1.24302e+01
164.000      1.26475e+01
165.000      1.27203e+01
166.000      1.26844e+01
167.000      1.25836e+01
168.000      1.24578e+01
169.000      1.23344e+01
170.000      1.22240e+01
171.000      1.21207e+01
172.000      1.20049e+01
173.000      1.18472e+01
174.000      1.16127e+01
175.000      1.12659e+01
176.000      1.07761e+01
177.000      1.01250e+01
178.000      9.31322e+00
179.000      8.36502e+00
180.000      7.32903e+00
181.000      6.27351e+00
182.000      5.27685e+00
183.000      4.41518e+00
184.000      3.74977e+00
185.000      3.31719e+00
186.000      3.12440e+00
187.000      3.14973e+00
188.000      3.34934e+00
189.000      3.66744e+00
190.000      4.04769e+00
191.000      4.44295e+00
192.000      4.82123e+00
193.000      5.16700e+00
194.000      5.47832e+00
195.000      5.76177e+00
196.000      6.02711e+00
197.000      6.28338e+00
198.000      6.53712e+00
199.000      6.79207e+00
200.000      7.04940e+00
201.000      7.30763e+00
202.000      7.56161e+00
203.000      7.80127e+00
204.000      8.01071e+00
205.000      8.16896e+00
206.000      8.25247e+00
207.000      8.23948e+00
208.000      8.11498e+00
209.000      7.87488e+00
210.000      7.52829e+00
211.000      7.09714e+00
212.000      6.61340e+00
213.000      6.11470e+00
214.000      5.63929e+00
215.000      5.22125e+00
216.000      4.88615e+00
217.000      4.64763e+00
218.000      4.50516e+00
219.000      4.44332e+00
220.000      4.43337e+00
221.000      4.43711e+00
222.000      4.41283e+00
223.000      4.32257e+00
224.000      4.13901e+00
225.000      3.85066e+00
226.000      3.46399e+00
227.000      3.00181e+00
228.000      2.49834e+00
229.000      1.99216e+00
230.000      1.51891e+00
231.000      1.10547e+00
232.000      7.66925e-01
233.000      5.06562e-01
234.000      3.18231e-01
235.000      1.89981e-01
236.000      1.07700e-01
237.000      5.79423e-02
238.000      2.95681e-02
239.000      1.43058e-02
240.000      6.56003e-03
241.000      2.85017e-03
242.000      1.17300e-03
243.000      4.57194e-04
244.000      1.68733e-04
245.000      5.89570e-05
246.000      1.95009e-05
247.000      6.10546e-06
248.000      1.80943e-06
249.000      5.08576e-07
250.000      1.40092e-07
251.000      5.70246e-08
252.000      1.01746e-07
253.000      3.59809e-07
254.000      1.29433e-06
255.000      4.42472e-06
256.000      1.43146e-05
257.000      4.38150e-05
258.000      1.26889e-04
259.000      3.47691e-04
260.000      9.01483e-04
261.000      2.21180e-03
262.000      5.13577e-03
263.000      1.12876e-02
264.000      2.34869e-02
265.000      4.62823e-02
266.000      8.64095e-02
267.000      1.52946e-01
268.000      2.56882e-01
269.000      4.09910e-01
270.000      6.22517e-01
271.000      9.01854e-01
272.000      1.25018e+00
273.000      1.66473e+00
274.000      2.13913e+00
275.000      2.66582e+00
276.000      3.23764e+00
277.000      3.84683e+00
278.000      4.48096e+00
279.000      5.11701e+00
280.000      5.71735e+00
281.000      6.23181e+00
282.000      6.60812e+00
283.000      6.80952e+00
284.000      6.83389e+00
285.000      6.72703e+00
286.000      6.58306e+00
287.000      6.52969e+00
288.000      6.70091e+00
289.000      7.20463e+00
290.000      8.09431e+00
291.000      9.35246e+00
292.000      1.08901e+01
293.000      1.25614e+01
294.000      1.41897e+01
295.000      1.55970e+01
296.000      1.66325e+01
297.000      1.71943e+01
298.000      1.72425e+01
299.000      1.68039e+01
300.000      1.59690e+01
301.000      1.48808e+01
302.000      1.37155e+01
303.000      1.26558e+01
304.000      1.18595e+01
305.000      1.14296e+01
306.000      1.13926e+01
307.000      1.16917e+01
308.000      1.21991e+01
309.000      1.27449e+01
310.000      1.31565e+01
311.000      1.33002e+01
312.000      1.31128e+01
313.000      1.26193e+01
314.000      1.19294e+01
315.000      1.12156e+01
316.000      1.06772e+01
317.000      1.04975e+01
318.000      1.08049e+01
319.000      1.16455e+01
320.000      1.29749e+01
321.000      1.46704e+01
322.000      1.65597e+01
323.000      1.84585e+01
324.000      2.02065e+01
325.000      2.16931e+01
326.000      2.28683e+01
327.000      2.37378e+01
328.000      2.43475e+01
329.000      2.47623e+01
330.000      2.50456e+01
331.000      2.52436e+01
332.000      2.53772e+01
333.000      2.54422e+01
334.000      2.54176e+01
335.000      2.52781e+01
336.000      2.50073e+01
337.000      2.46077e+01
338.000      2.41041e+01
339.000      2.35396e+01
340.000      2.29668e+01
341.000      2.24379e+01
342.000      2.19964e+01
343.000      2.16730e+01
344.000      2.14848e+01
345.000      2.14368e+01
346.000      2.15233e+01
347.000      2.17296e+01
348.000      2.20315e+01
349.000      2.23970e+01
350.000      2.27882e+01
351.000      2.31675e+01
352.000      2.35037e+01
353.000      2.37802e+01
354.000      2.39991e+01
355.000      2.41805e+01
356.000      2.43553e+01
357.000      2.45519e+01
358.000      2.47821e+01
359.000      2.50300e+01
360.000      2.52498e+01
361.000      2.53730e+01
362.000      2.53236e+01
363.000      2.50368e+01
364.000      2.44744e+01
365.000      2.36329e+01
366.000      2.25419e+01
367.000      2.12555e+01
368.000      1.98395e+01
369.000      1.83594e+01
370.000      1.68720e+01
371.000      1.54222e+01
372.000      1.40442e+01
373.000      1.27651e+01
374.000      1.16081e+01
375.000      1.05945e+01
376.000      9.74392e+00
377.000      9.07369e+00
378.000      8.59980e+00
379.000      8.34025e+00
380.000      8.32004e+00
381.000      8.57474e+00
382.000      9.14844e+00
383.000      1.00838e+01
384.000      1.14047e+01
385.000      1.30988e+01
386.000      1.51054e+01
387.000      1.73185e+01
388.000      1.96043e+01
389.000      2.18270e+01
390.000      2.38730e+01
391.000      2.56620e+01
392.000      2.71395e+01
393.000      2.82579e+01
394.000      2.89548e+01
395.000      2.91451e+01
396.000      2.87325e+01
397.000      2.76389e+01
398.000      2.58396e+01
399.000      2.33904e+01
400.000      2.04331e+01
401.000      1.71779e+01
402.000      1.38661e+01
403.000      1.07273e+01
404.000      7.94190e+00
405.000      5.61985e+00
406.000      3.79705e+00
407.000      2.44760e+00
408.000      1.50463e+00
409.000      8.82856e-01
410.000      4.97213e-01
411.000      2.75089e-01
412.000      1.62007e-01
413.000      1.22326e-01
414.000      1.36961e-01
415.000      1.99718e-01
416.000      3.13198e-01
417.000      4.84609e-01
418.000      7.21580e-01
419.000      1.02819e+00
420.000      1.40172e+00
421.000      1.83076e+00
422.000      2.29543e+00
423.000      2.76960e+00
424.000      3.22470e+00
425.000      3.63378e+00
426.000      3.97449e+00
427.000      4.23008e+00
428.000      4.38859e+00
429.000      4.44140e+00
430.000      4.38239e+00
431.000      4.20901e+00
432.000      3.92481e+00
433.000      3.54239e+00
434.000      3.08481e+00
435.000      2.58423e+00
436.000      2.07770e+00
437.000      1.60130e+00
438.000      1.18459e+00
439.000      8.47170e-01
440.000      5.97896e-01
441.000      4.36581e-01
442.000      3.56781e-01
443.000      3.48378e-01
444.000      3.99017e-01
445.000      4.94316e-01
446.000      6.17449e-01
447.000      7.49116e-01
448.000      8.68688e-01
449.000      9.56726e-01
450.000      9.98314e-01
451.000      9.86064e-01
452.000      9.21619e-01
453.000      8.14985e-01
454.000      6.81833e-01
455.000      5.39671e-01
456.000      4.04110e-01
457.000      2.86278e-01
458.000      1.91865e-01
459.000      1.21652e-01
460.000      7.29729e-02
461.000      4.14115e-02
462.000      2.22330e-02
463.000      1.12926e-02
464.000      5.42633e-03
465.000      2.46681e-03
466.000      1.06092e-03
467.000      4.31667e-04
468.000      1.66162e-04
469.000      6.05107e-05
470.000      2.08473e-05
471.000      6.79494e-06
472.000      2.09527e-06
473.000      6.11238e-07
474.000      1.68694e-07
475.000      4.40458e-08
476.000      1.08800e-08
477.000      2.54255e-09
478.000      5.62119e-10
479.000      1.17572e-10
480.000      2.32648e-11
481.000      4.35522e-12
482.000      7.71329e-13
483.000      1.29237e-13
484.000      2.04857e-14
485.000      3.07209e-15
486.000      4.35846e-16
487.000      5.84992e-17
488.000      7.42823e-18
489.000      8.92355e-19
490.000      1.01416e-19
491.000      1.09042e-20
492.000      1.10918e-21
493.000      1.06739e-22
494.000      9.71771e-24
495.000      8.36993e-25
496.000      6.82021e-26
497.000      5.25764e-27
498.000      3.83444e-28
499.000      2.64564e-29
500.000      1.72694e-30
