# Gaussian folded, width=10 cm^-1
# [cm^-1] arbitrary
0.000      3.00000e+00
1.000      2.91796e+00
2.000      2.68508e+00
3.000      2.33749e+00
4.000      1.92514e+00
5.000      1.50000e+00
6.000      1.10570e+00
7.000      7.71085e-01
8.000      5.08727e-01
9.000      3.17530e-01
10.000      1.87501e-01
11.000      1.04750e-01
12.000      5.53742e-02
13.000      2.77271e-02
14.000      1.32348e-02
15.000      6.25885e-03
16.000      3.54882e-03
17.000      3.70050e-03
18.000      6.87902e-03
19.000      1.49429e-02
20.000      3.20164e-02
21.000      6.54618e-02
22.000      1.27047e-01
23.000      2.33864e-01
24.000      4.08277e-01
25.000      6.76017e-01
26.000      1.06168e+00
27.000      1.58152e+00
28.000      2.23469e+00
29.000      2.99521e+00
30.000      3.80807e+00
31.000      4.59248e+00
32.000      5.25346e+00
33.000      5.70014e+00
34.000      5.86610e+00
35.000      5.72560e+00
36.000      5.30018e+00
37.000      4.65349e+00
38.000      3.87619e+00
39.000      3.06602e+00
40.000      2.30954e+00
41.000      1.67049e+00
42.000      1.18676e+00
43.000      8.74768e-01
44.000      7.37686e-01
45.000      7.73431e-01
46.000      9.79154e-01
47.000      1.35069e+00
48.000      1.87747e+00
49.000      2.53523e+00
50.000      3.27975e+00
51.000      4.04523e+00
52.000      4.74936e+00
53.000      5.30520e+00
54.000      5.63745e+00
55.000      5.69843e+00
56.000      5.47902e+00
57.000      5.01076e+00
58.000      4.35863e+00
59.000      3.60660e+00
60.000      2.84070e+00
61.000      2.13459e+00
62.000      1.54102e+00
63.000      1.09070e+00
64.000      7.96995e-01
65.000      6.63714e-01
66.000      6.92329e-01
67.000      8.85807e-01
68.000      1.24744e+00
69.000      1.77488e+00
70.000      2.45163e+00
71.000      3.23944e+00
72.000      4.07593e+00
73.000      4.88042e+00
74.000      5.56854e+00
75.000      6.07246e+00
76.000      6.36099e+00
77.000      6.45232e+00
78.000      6.41439e+00
79.000      6.35170e+00
80.000      6.38211e+00
81.000      6.61051e+00
82.000      7.10703e+00
83.000      7.89535e+00
84.000      8.95263e+00
85.000      1.02189e+01
86.000      1.16116e+01
87.000      1.30388e+01
88.000      1.44097e+01
89.000      1.56393e+01
90.000      1.66493e+01
91.000      1.73700e+01
92.000      1.77428e+01
93.000      1.77280e+01
94.000      1.73141e+01
95.000      1.65257e+01
96.000      1.54258e+01
97.000      1.41095e+01
98.000      1.26895e+01
99.000      1.12772e+01
100.000      9.96525e+00
101.000      8.81777e+00
102.000      7.86998e+00
103.000      7.13670e+00
104.000      6.62466e+00
105.000      6.34283e+00
106.000      6.30670e+00
107.000      6.53538e+00
108.000      7.04372e+00
109.000      7.83384e+00
110.000      8.88990e+00
111.000      1.01780e+01
112.000      1.16501e+01
113.000      1.32494e+01
114.000      1.49129e+01
115.000      1.65705e+01
116.000      1.81419e+01
117.000      1.95347e+01
118.000      2.06485e+01
119.000      2.13872e+01
120.000      2.16779e+01
121.000      2.14900e+01
122.000      2.08486e+01
123.000      1.98345e+01
124.000      1.85704e+01
125.000      1.71967e+01
126.000      1.58440e+01
127.000      1.46107e+01
128.000      1.35523e+01
129.000      1.26820e+01
130.000      1.19819e+01
131.000      1.14200e+01
132.000      1.09654e+01
133.000      1.06007e+01
134.000      1.03270e+01
135.000      1.01611e+01
136.000      1.01270e+01
137.000      1.02433e+01
138.000      1.05097e+01
139.000      1.08969e+01
140.000      1.13438e+01
141.000      1.17634e+01
142.000      1.20587e+01
143.000      1.21436e+01
144.000      1.19647e+01
145.000      1.15150e+01
146.000      1.08360e+01
147.000      1.00060e+01
148.000      9.11855e+00
149.000      8.25853e+00
150.000      7.48398e+00
151.000      6.81903e+00
152.000      6.25872e+00
153.000      5.78219e+00
154.000      5.36844e+00
155.000      5.00887e+00
156.000      4.71318e+00
157.000      4.50767e+00
158.000      4.42744e+00
159.000      4.50537e+00
160.000      4.76095e+00
161.000      5.19214e+00
162.000      5.77239e+00
163.000      6.45447e+00
164.000      7.18093e+00
165.000      7.89959e+00
166.000      8.57990e+00
167.000      9.22474e+00
168.000      9.87199e+00
169.000      1.05829e+01
170.000      1.14191e+01
171.000      1.24155e+01
172.000      1.35590e+01
173.000      1.47826e+01
174.000      1.59788e+01
175.000      1.70279e+01
176.000      1.78325e+01
177.000      1.83447e+01
178.000      1.85773e+01
179.000      1.85962e+01
180.000      1.84961e+01
181.000      1.83701e+01
182.000      1.82808e+01
183.000      1.82446e+01
184.000      1.82315e+01
185.000      1.81837e+01
186.000      1.80456e+01
187.000      1.77980e+01
188.000      1.74837e+01
189.000      1.72132e+01
190.000      1.71464e+01
191.000      1.74515e+01
192.000      1.82527e+01
193.000      1.95843e+01
194.000      2.13669e+01
195.000      2.34171e+01
196.000      2.54894e+01
197.000      2.73368e+01
198.000      2.87726e+01
199.000      2.97106e+01
200.000      3.01736e+01
201.000      3.02664e+01
202.000      3.01271e+01
203.000      2.98727e+01
204.000      2.95591e+01
205.000      2.91674e+01
206.000      2.86188e+01
207.000      2.78102e+01
208.000      2.66567e+01
209.000      2.51255e+01
210.000      2.32521e+01
211.000      2.11344e+01
212.000      1.89110e+01
213.000      1.67317e+01
214.000      1.47286e+01
215.000      1.29964e+01
216.000      1.15818e+01
217.000      1.04834e+01
218.000      9.65816e+00
219.000      9.03376e+00
220.000      8.52270e+00
221.000      8.03893e+00
222.000      7.51374e+00
223.000      6.90896e+00
224.000      6.22448e+00
225.000      5.49805e+00
226.000      4.79726e+00
227.000      4.20531e+00
228.000      3.80404e+00
229.000      3.65800e+00
230.000      3.80264e+00
231.000      4.23858e+00
232.000      4.93226e+00
233.000      5.82238e+00
234.000      6.83080e+00
235.000      7.87558e+00
236.000      8.88408e+00
237.000      9.80336e+00
238.000      1.06057e+01
239.000      1.12885e+01
240.000      1.18672e+01
241.000      1.23655e+01
242.000      1.28027e+01
243.000      1.31842e+01
244.000      1.34963e+01
245.000      1.37081e+01
246.000      1.37782e+01
247.000      1.36651e+01
248.000      1.33368e+01
249.000      1.27784e+01
250.000      1.19948e+01
251.000      1.10106e+01
252.000      9.86766e+00
253.000      8.62198e+00
254.000      7.33945e+00
255.000      6.09088e+00
256.000      4.94566e+00
257.000      3.96495e+00
258.000      3.19615e+00
259.000      2.67090e+00
260.000      2.40793e+00
261.000      2.42008e+00
262.000      2.72316e+00
263.000      3.34271e+00
264.000      4.31471e+00
265.000      5.67806e+00
266.000      7.45934e+00
267.000      9.65379e+00
268.000      1.22087e+01
269.000      1.50162e+01
270.000      1.79199e+01
271.000      2.07372e+01
272.000      2.32914e+01
273.000      2.54469e+01
274.000      2.71375e+01
275.000      2.83785e+01
276.000      2.92595e+01
277.000      2.99187e+01
278.000      3.05042e+01
279.000      3.11319e+01
280.000      3.18504e+01
281.000      3.26219e+01
282.000      3.33241e+01
283.000      3.37736e+01
284.000      3.37665e+01
285.000      3.31269e+01
286.000      3.17500e+01
287.000      2.96315e+01
288.000      2.68740e+01
289.000      2.36688e+01
290.000      2.02615e+01
291.000      1.69084e+01
292.000      1.38362e+01
293.000      1.12135e+01
294.000      9.13745e+00
295.000      7.63415e+00
296.000      6.66943e+00
297.000      6.16448e+00
298.000      6.01293e+00
299.000      6.09666e+00
300.000      6.29934e+00
301.000      6.51686e+00
302.000      6.66466e+00
303.000      6.68210e+00
304.000      6.53436e+00
305.000      6.21268e+00
306.000      5.73304e+00
307.000      5.13300e+00
308.000      4.46626e+00
309.000      3.79462e+00
310.000      3.17823e+00
311.000      2.66582e+00
312.000      2.28734e+00
313.000      2.05092e+00
314.000      1.94483e+00
315.000      1.94372e+00
316.000      2.01717e+00
317.000      2.13805e+00
318.000      2.28846e+00
319.000      2.46169e+00
320.000      2.65999e+00
321.000      2.88869e+00
322.000      3.14877e+00
323.000      3.43004e+00
324.000      3.70790e+00
325.000      3.94510e+00
326.000      4.09891e+00
327.000      4.13192e+00
328.000      4.02304e+00
329.000      3.77490e+00
330.000      3.41499e+00
331.000      2.98972e+00
332.000      2.55323e+00
333.000      2.15455e+00
334.000      1.82704e+00
335.000      1.58289e+00
336.000      1.41397e+00
337.000      1.29779e+00
338.000      1.20629e+00
339.000      1.11444e+00
340.000      1.00628e+00
341.000      8.77078e-01
342.000      7.31945e-01
343.000      5.81916e-01
344.000      4.39437e-01
345.000      3.14660e-01
346.000      2.13436e-01
347.000      1.37067e-01
348.000      8.33098e-02
349.000      4.79162e-02
350.000      2.60762e-02
351.000      1.34264e-02
352.000      6.54047e-03
353.000      3.01431e-03
354.000      1.31429e-03
355.000      5.42146e-04
356.000      2.11573e-04
357.000      7.81130e-05
358.000      2.72838e-05
359.000      9.01578e-06
360.000      2.81852e-06
361.000      8.33595e-07
362.000      2.33243e-07
363.000      6.17416e-08
364.000      1.54620e-08
365.000      3.66329e-09
366.000      8.21096e-10
367.000      1.74114e-10
368.000      3.49295e-11
369.000      6.62931e-12
370.000      1.19031e-12
371.000      2.02196e-13
372.000      3.24938e-14
373.000      4.94023e-15
374.000      7.10577e-16
375.000      9.66924e-17
376.000      1.24478e-17
377.000      1.51603e-18
378.000      1.74680e-19
379.000      1.90412e-20
380.000      1.96365e-21
381.000      1.91580e-22
382.000      1.76829e-23
383.000      1.54410e-24
384.000      1.27561e-25
385.000      9.96951e-27
386.000      7.37138e-28
387.000      5.15634e-29
388.000      3.41233e-30
389.000      2.13638e-31
390.000      1.26539e-32
391.000      7.09067e-34
392.000      3.75896e-35
393.000      1.88524e-36
394.000      8.94503e-38
395.000      4.01528e-39
396.000      1.70516e-40
397.000      6.85070e-42
398.000      2.60388e-43
399.000      9.36321e-45
400.000      3.18527e-46
401.000      1.02514e-47
402.000      3.12134e-49
403.000      8.99116e-51
404.000      2.45023e-52
405.000      6.31709e-54
406.000      1.54079e-55
407.000      3.55540e-57
408.000      7.76159e-59
409.000      1.60299e-60
410.000      3.13204e-62
411.000      5.78952e-64
412.000      1.01245e-65
413.000      1.67504e-67
414.000      2.62176e-69
415.000      3.88221e-71
416.000      5.43853e-73
417.000      7.20779e-75
418.000      9.03733e-77
419.000      1.07200e-78
420.000      1.20301e-80
421.000      1.27720e-82
422.000      1.28283e-84
423.000      1.21898e-86
424.000      1.09582e-88
425.000      9.31966e-91
426.000      7.49858e-93
427.000      5.70789e-95
428.000      4.11046e-97
429.000      2.80041e-99
430.000     1.80497e-101
431.000     1.10062e-103
432.000     6.34925e-106
433.000     3.46517e-108
434.000     1.78914e-110
435.000     8.73941e-113
436.000     4.03866e-115
437.000     1.76567e-117
438.000     7.30297e-120
439.000     2.85764e-122
440.000     1.05787e-124
441.000     3.70489e-127
442.000     1.22754e-129
443.000     3.84782e-132
444.000     1.14106e-134
445.000     3.20128e-137
446.000     8.49678e-140
447.000     2.13355e-142
448.000     5.06838e-145
449.000     1.13908e-147
450.000     2.42189e-150
451.000     4.87162e-153
452.000     9.27065e-156
453.000     1.66903e-158
454.000     2.84273e-161
455.000     4.58063e-164
456.000     6.98284e-167
457.000     1.00706e-169
458.000     1.37404e-172
459.000     1.77361e-175
460.000     2.16589e-178
461.000     2.50225e-181
462.000     2.73491e-184
463.000     2.82796e-187
464.000     2.76644e-190
465.000     2.56028e-193
466.000     2.24166e-196
467.000     1.85682e-199
468.000     1.45509e-202
469.000     1.07876e-205
470.000     7.56620e-209
471.000     5.02052e-212
472.000     3.15165e-215
473.000     1.87173e-218
474.000     1.05164e-221
475.000     5.58996e-225
476.000     2.81105e-228
477.000     1.33735e-231
478.000     6.01920e-235
479.000     2.56301e-238
480.000     1.03248e-241
481.000     3.93484e-245
482.000     1.41870e-248
483.000     4.83920e-252
484.000     1.56161e-255
485.000     4.76750e-259
486.000     1.37697e-262
487.000     3.76252e-266
488.000     9.72632e-270
489.000     2.37868e-273
490.000     5.50354e-277
491.000     1.20466e-280
492.000     2.49463e-284
493.000     4.88724e-288
494.000     9.05815e-292
495.000     1.58830e-295
496.000     2.63478e-299
497.000     4.13497e-303
498.000     6.13929e-307
499.000     8.62347e-311
500.000     1.14594e-314
