# Gaussian folded, width=10 cm^-1
# [cm^-1] arbitrary
0.000      3.00000e+00
1.000      2.91796e+00
2.000      2.68508e+00
3.000      2.33749e+00
4.000      1.92514e+00
5.000      1.50000e+00
6.000      1.10570e+00
7.000      7.71085e-01
8.000      5.08727e-01
9.000      3.17529e-01
10.000      1.87500e-01
11.000      1.04746e-01
12.000      5.53593e-02
13.000      2.76804e-02
14.000      1.30962e-02
15.000      5.86935e-03
16.000      2.51231e-03
17.000      1.08850e-03
18.000      6.46436e-04
19.000      8.62669e-04
20.000      1.90533e-03
21.000      4.51988e-03
22.000      1.03550e-02
23.000      2.25572e-02
24.000      4.66357e-02
25.000      9.15056e-02
26.000      1.70443e-01
27.000      3.01464e-01
28.000      5.06465e-01
29.000      8.08442e-01
30.000      1.22649e+00
31.000      1.76895e+00
32.000      2.42618e+00
33.000      3.16511e+00
34.000      3.92830e+00
35.000      4.63921e+00
36.000      5.21388e+00
37.000      5.57685e+00
38.000      5.67728e+00
39.000      5.50052e+00
40.000      5.07163e+00
41.000      4.44962e+00
42.000      3.71424e+00
43.000      2.94945e+00
44.000      2.22828e+00
45.000      1.60279e+00
46.000      1.10092e+00
47.000      7.29506e-01
48.000      4.81290e-01
49.000      3.43240e-01
50.000      3.03778e-01
51.000      3.57379e-01
52.000      5.05887e-01
53.000      7.56577e-01
54.000      1.11755e+00
55.000      1.59153e+00
56.000      2.16945e+00
57.000      2.82570e+00
58.000      3.51661e+00
59.000      4.18326e+00
60.000      4.75862e+00
61.000      5.17805e+00
62.000      5.39066e+00
63.000      5.36916e+00
64.000      5.11540e+00
65.000      4.66042e+00
66.000      4.05862e+00
67.000      3.37784e+00
68.000      2.68759e+00
69.000      2.04882e+00
70.000      1.50729e+00
71.000      1.09171e+00
72.000      8.16363e-01
73.000      6.86030e-01
74.000      7.01305e-01
75.000      8.61873e-01
76.000      1.16666e+00
77.000      1.61078e+00
78.000      2.18036e+00
79.000      2.84755e+00
80.000      3.56780e+00
81.000      4.28176e+00
82.000      4.92258e+00
83.000      5.42782e+00
84.000      5.75321e+00
85.000      5.88449e+00
86.000      5.84331e+00
87.000      5.68463e+00
88.000      5.48601e+00
89.000      5.33169e+00
90.000      5.29621e+00
91.000      5.43229e+00
92.000      5.76565e+00
93.000      6.29644e+00
94.000      7.00492e+00
95.000      7.85776e+00
96.000      8.81285e+00
97.000      9.82179e+00
98.000      1.08314e+01
99.000      1.17855e+01
100.000      1.26288e+01
101.000      1.33106e+01
102.000      1.37898e+01
103.000      1.40379e+01
104.000      1.40407e+01
105.000      1.37982e+01
106.000      1.33241e+01
107.000      1.26461e+01
108.000      1.18048e+01
109.000      1.08543e+01
110.000      9.85913e+00
111.000      8.89091e+00
112.000      8.02155e+00
113.000      7.31549e+00
114.000      6.82231e+00
115.000      6.57107e+00
116.000      6.56788e+00
117.000      6.79637e+00
118.000      7.22061e+00
119.000      7.78971e+00
120.000      8.44366e+00
121.000      9.12041e+00
122.000      9.76401e+00
123.000      1.03327e+01
124.000      1.08053e+01
125.000      1.11836e+01
126.000      1.14896e+01
127.000      1.17579e+01
128.000      1.20242e+01
129.000      1.23151e+01
130.000      1.26402e+01
131.000      1.29900e+01
132.000      1.33388e+01
133.000      1.36533e+01
134.000      1.39008e+01
135.000      1.40572e+01
136.000      1.41112e+01
137.000      1.40637e+01
138.000      1.39247e+01
139.000      1.37081e+01
140.000      1.34281e+01
141.000      1.30980e+01
142.000      1.27308e+01
143.000      1.23417e+01
144.000      1.19492e+01
145.000      1.15747e+01
146.000      1.12387e+01
147.000      1.09570e+01
148.000      1.07359e+01
149.000      1.05710e+01
150.000      1.04474e+01
151.000      1.03438e+01
152.000      1.02375e+01
153.000      1.01095e+01
154.000      9.94795e+00
155.000      9.74902e+00
156.000      9.51566e+00
157.000      9.25466e+00
158.000      8.97364e+00
159.000      8.67874e+00
160.000      8.37366e+00
161.000      8.05994e+00
162.000      7.73826e+00
163.000      7.41024e+00
164.000      7.08061e+00
165.000      6.75919e+00
166.000      6.46235e+00
167.000      6.21329e+00
168.000      6.04064e+00
169.000      5.97511e+00
170.000      6.04481e+00
171.000      6.26991e+00
172.000      6.65791e+00
173.000      7.20041e+00
174.000      7.87206e+00
175.000      8.63180e+00
176.000      9.42627e+00
177.000      1.01952e+01
178.000      1.08782e+01
179.000      1.14222e+01
180.000      1.17889e+01
181.000      1.19611e+01
182.000      1.19454e+01
183.000      1.17731e+01
184.000      1.14954e+01
185.000      1.11757e+01
186.000      1.08789e+01
187.000      1.06597e+01
188.000      1.05532e+01
189.000      1.05691e+01
190.000      1.06919e+01
191.000      1.08865e+01
192.000      1.11076e+01
193.000      1.13096e+01
194.000      1.14550e+01
195.000      1.15188e+01
196.000      1.14904e+01
197.000      1.13726e+01
198.000      1.11803e+01
199.000      1.09389e+01
200.000      1.06817e+01
201.000      1.04457e+01
202.000      1.02663e+01
203.000      1.01707e+01
204.000      1.01719e+01
205.000      1.02664e+01
206.000      1.04343e+01
207.000      1.06438e+01
208.000      1.08570e+01
209.000      1.10362e+01
210.000      1.11473e+01
211.000      1.11633e+01
212.000      1.10649e+01
213.000      1.08421e+01
214.000      1.04957e+01
215.000      1.00398e+01
216.000      9.50290e+00
217.000      8.92719e+00
218.000      8.36574e+00
219.000      7.87658e+00
220.000      7.51540e+00
221.000      7.32762e+00
222.000      7.34115e+00
223.000      7.56119e+00
224.000      7.96827e+00
225.000      8.52056e+00
226.000      9.16069e+00
227.000      9.82599e+00
228.000      1.04599e+01
229.000      1.10215e+01
230.000      1.14906e+01
231.000      1.18674e+01
232.000      1.21673e+01
233.000      1.24129e+01
234.000      1.26262e+01
235.000      1.28232e+01
236.000      1.30107e+01
237.000      1.31867e+01
238.000      1.33427e+01
239.000      1.34662e+01
240.000      1.35448e+01
241.000      1.35681e+01
242.000      1.35298e+01
243.000      1.34279e+01
244.000      1.32653e+01
245.000      1.30486e+01
246.000      1.27883e+01
247.000      1.24989e+01
248.000      1.21980e+01
249.000      1.19051e+01
250.000      1.16382e+01
251.000      1.14099e+01
252.000      1.12236e+01
253.000      1.10716e+01
254.000      1.09369e+01
255.000      1.07978e+01
256.000      1.06351e+01
257.000      1.04387e+01
258.000      1.02125e+01
259.000      9.97347e+00
260.000      9.74685e+00
261.000      9.55788e+00
262.000      9.42306e+00
263.000      9.34395e+00
264.000      9.30579e+00
265.000      9.28103e+00
266.000      9.23659e+00
267.000      9.14231e+00
268.000      8.97779e+00
269.000      8.73610e+00
270.000      8.42348e+00
271.000      8.05626e+00
272.000      7.65623e+00
273.000      7.24639e+00
274.000      6.84810e+00
275.000      6.47987e+00
276.000      6.15743e+00
277.000      5.89445e+00
278.000      5.70327e+00
279.000      5.59529e+00
280.000      5.58084e+00
281.000      5.66829e+00
282.000      5.86229e+00
283.000      6.16113e+00
284.000      6.55385e+00
285.000      7.01787e+00
286.000      7.51842e+00
287.000      8.01081e+00
288.000      8.44564e+00
289.000      8.77637e+00
290.000      8.96748e+00
291.000      9.00118e+00
292.000      8.88087e+00
293.000      8.63042e+00
294.000      8.28939e+00
295.000      7.90543e+00
296.000      7.52565e+00
297.000      7.18877e+00
298.000      6.91956e+00
299.000      6.72638e+00
300.000      6.60198e+00
301.000      6.52685e+00
302.000      6.47444e+00
303.000      6.41684e+00
304.000      6.33014e+00
305.000      6.19873e+00
306.000      6.01810e+00
307.000      5.79612e+00
308.000      5.55245e+00
309.000      5.31588e+00
310.000      5.11951e+00
311.000      4.99437e+00
312.000      4.96275e+00
313.000      5.03328e+00
314.000      5.19958e+00
315.000      5.44315e+00
316.000      5.73990e+00
317.000      6.06770e+00
318.000      6.41250e+00
319.000      6.77082e+00
320.000      7.14807e+00
321.000      7.55406e+00
322.000      7.99779e+00
323.000      8.48336e+00
324.000      9.00841e+00
325.000      9.56471e+00
326.000      1.01403e+01
327.000      1.07223e+01
328.000      1.12992e+01
329.000      1.18631e+01
330.000      1.24114e+01
331.000      1.29474e+01
332.000      1.34796e+01
333.000      1.40204e+01
334.000      1.45825e+01
335.000      1.51749e+01
336.000      1.57996e+01
337.000      1.64494e+01
338.000      1.71095e+01
339.000      1.77600e+01
340.000      1.83814e+01
341.000      1.89593e+01
342.000      1.94871e+01
343.000      1.99658e+01
344.000      2.04012e+01
345.000      2.07993e+01
346.000      2.11618e+01
347.000      2.14831e+01
348.000      2.17501e+01
349.000      2.19443e+01
350.000      2.20454e+01
351.000      2.20340e+01
352.000      2.18944e+01
353.000      2.16148e+01
354.000      2.11864e+01
355.000      2.06032e+01
356.000      1.98616e+01
357.000      1.89632e+01
358.000      1.79169e+01
359.000      1.67422e+01
360.000      1.54709e+01
361.000      1.41455e+01
362.000      1.28157e+01
363.000      1.15327e+01
364.000      1.03428e+01
365.000      9.28205e+00
366.000      8.37277e+00
367.000      7.62246e+00
368.000      7.02506e+00
369.000      6.56393e+00
370.000      6.21605e+00
371.000      5.95652e+00
372.000      5.76281e+00
373.000      5.61813e+00
374.000      5.51355e+00
375.000      5.44879e+00
376.000      5.43171e+00
377.000      5.47679e+00
378.000      5.60289e+00
379.000      5.83033e+00
380.000      6.17732e+00
381.000      6.65563e+00
382.000      7.26569e+00
383.000      7.99166e+00
384.000      8.79763e+00
385.000      9.62651e+00
386.000      1.04032e+01
387.000      1.10424e+01
388.000      1.14619e+01
389.000      1.15967e+01
390.000      1.14136e+01
391.000      1.09188e+01
392.000      1.01582e+01
393.000      9.20852e+00
394.000      8.16195e+00
395.000      7.10871e+00
396.000      6.12261e+00
397.000      5.25290e+00
398.000      4.52330e+00
399.000      3.93661e+00
400.000      3.48177e+00
401.000      3.14019e+00
402.000      2.88991e+00
403.000      2.70722e+00
404.000      2.56728e+00
405.000      2.44500e+00
406.000      2.31718e+00
407.000      2.16562e+00
408.000      1.98027e+00
409.000      1.76118e+00
410.000      1.51837e+00
411.000      1.26958e+00
412.000      1.03642e+00
413.000      8.40065e-01
414.000      6.97363e-01
415.000      6.17973e-01
416.000      6.02824e-01
417.000      6.43849e-01
418.000      7.24995e-01
419.000      8.24498e-01
420.000      9.18314e-01
421.000      9.84288e-01
422.000      1.00624e+00
423.000      9.76918e-01
424.000      8.98885e-01
425.000      7.83120e-01
426.000      6.45709e-01
427.000      5.03781e-01
428.000      3.71878e-01
429.000      2.59713e-01
430.000      1.71598e-01
431.000      1.07264e-01
432.000      6.34328e-02
433.000      3.54888e-02
434.000      1.87840e-02
435.000      9.40593e-03
436.000      4.45588e-03
437.000      1.99702e-03
438.000      8.46739e-04
439.000      3.39652e-04
440.000      1.28895e-04
441.000      4.62760e-05
442.000      1.57178e-05
443.000      5.05066e-06
444.000      1.53540e-06
445.000      4.41581e-07
446.000      1.20148e-07
447.000      3.09274e-08
448.000      7.53158e-09
449.000      1.73519e-09
450.000      3.78203e-10
451.000      7.79867e-11
452.000      1.52137e-11
453.000      2.80779e-12
454.000      4.90245e-13
455.000      8.09803e-14
456.000      1.26550e-14
457.000      1.87096e-15
458.000      2.61688e-16
459.000      3.46274e-17
460.000      4.33485e-18
461.000      5.13388e-19
462.000      5.75221e-20
463.000      6.09736e-21
464.000      6.11457e-22
465.000      5.80107e-23
466.000      5.20677e-24
467.000      4.42125e-25
468.000      3.55173e-26
469.000      2.69931e-27
470.000      1.94081e-28
471.000      1.32017e-29
472.000      8.49563e-31
473.000      5.17224e-32
474.000      2.97906e-33
475.000      1.62329e-34
476.000      8.36822e-36
477.000      4.08118e-37
478.000      1.88303e-38
479.000      8.21950e-40
480.000      3.39431e-41
481.000      1.32610e-42
482.000      4.90136e-44
483.000      1.71386e-45
484.000      5.66960e-47
485.000      1.77438e-48
486.000      5.25361e-50
487.000      1.47159e-51
488.000      3.89973e-53
489.000      9.77684e-55
490.000      2.31889e-56
491.000      5.20332e-58
492.000      1.10458e-59
493.000      2.21836e-61
494.000      4.21488e-63
495.000      7.57627e-65
496.000      1.28838e-66
497.000      2.07276e-68
498.000      3.15480e-70
499.000      4.54268e-72
500.000      6.18828e-74
