# Gaussian folded, width=10 cm^-1
# [cm^-1] arbitrary
0.000      3.00000e+00
1.000      2.91796e+00
2.000      2.68508e+00
3.000      2.33749e+00
4.000      1.92514e+00
5.000      1.50000e+00
6.000      1.10570e+00
7.000      7.71085e-01
8.000      5.08727e-01
9.000      3.17529e-01
10.000      1.87500e-01
11.000      1.04746e-01
12.000      5.53593e-02
13.000      2.76803e-02
14.000      1.30961e-02
15.000      5.86911e-03
16.000      2.51151e-03
17.000      1.08596e-03
18.000      6.38906e-04
19.000      8.41747e-04
20.000      1.85084e-03
21.000      4.38690e-03
22.000      1.00508e-02
23.000      2.19055e-02
24.000      4.53290e-02
25.000      8.90560e-02
26.000      1.66157e-01
27.000      2.94484e-01
28.000      4.95917e-01
29.000      7.93727e-01
30.000      1.20769e+00
31.000      1.74723e+00
32.000      2.40401e+00
33.000      3.14613e+00
34.000      3.91668e+00
35.000      4.63856e+00
36.000      5.22612e+00
37.000      5.60133e+00
38.000      5.71066e+00
39.000      5.53752e+00
40.000      5.10637e+00
41.000      4.47718e+00
42.000      3.73178e+00
43.000      2.95663e+00
44.000      2.22685e+00
45.000      1.59578e+00
46.000      1.09168e+00
47.000      7.20950e-01
48.000      4.75597e-01
49.000      3.41846e-01
50.000      3.07561e-01
51.000      3.66847e-01
52.000      5.21262e-01
53.000      7.77760e-01
54.000      1.14401e+00
55.000      1.62215e+00
56.000      2.20246e+00
57.000      2.85864e+00
58.000      3.54639e+00
59.000      4.20633e+00
60.000      4.77147e+00
61.000      5.17780e+00
62.000      5.37590e+00
63.000      5.34059e+00
64.000      5.07613e+00
65.000      4.61561e+00
66.000      4.01455e+00
67.000      3.34076e+00
68.000      2.66277e+00
69.000      2.04017e+00
70.000      1.51746e+00
71.000      1.12257e+00
72.000      8.68984e-01
73.000      7.59942e-01
74.000      7.92730e-01
75.000      9.61381e-01
76.000      1.25718e+00
77.000      1.66726e+00
78.000      2.17228e+00
79.000      2.74460e+00
80.000      3.34819e+00
81.000      3.94093e+00
82.000      4.47952e+00
83.000      4.92619e+00
84.000      5.25602e+00
85.000      5.46305e+00
86.000      5.56347e+00
87.000      5.59468e+00
88.000      5.60986e+00
89.000      5.66899e+00
90.000      5.82801e+00
91.000      6.12864e+00
92.000      6.59085e+00
93.000      7.20968e+00
94.000      7.95661e+00
95.000      8.78521e+00
96.000      9.63966e+00
97.000      1.04643e+01
98.000      1.12124e+01
99.000      1.18516e+01
100.000      1.23661e+01
101.000      1.27537e+01
102.000      1.30200e+01
103.000      1.31711e+01
104.000      1.32081e+01
105.000      1.31244e+01
106.000      1.29079e+01
107.000      1.25468e+01
108.000      1.20368e+01
109.000      1.13868e+01
110.000      1.06227e+01
111.000      9.78523e+00
112.000      8.92659e+00
113.000      8.10383e+00
114.000      7.37349e+00
115.000      6.78704e+00
116.000      6.38751e+00
117.000      6.20651e+00
118.000      6.26105e+00
119.000      6.55034e+00
120.000      7.05403e+00
121.000      7.73313e+00
122.000      8.53456e+00
123.000      9.39873e+00
124.000      1.02682e+01
125.000      1.10952e+01
126.000      1.18463e+01
127.000      1.25028e+01
128.000      1.30592e+01
129.000      1.35184e+01
130.000      1.38883e+01
131.000      1.41774e+01
132.000      1.43922e+01
133.000      1.45365e+01
134.000      1.46103e+01
135.000      1.46121e+01
136.000      1.45402e+01
137.000      1.43960e+01
138.000      1.41857e+01
139.000      1.39211e+01
140.000      1.36179e+01
141.000      1.32930e+01
142.000      1.29604e+01
143.000      1.26271e+01
144.000      1.22921e+01
145.000      1.19471e+01
146.000      1.15799e+01
147.000      1.11789e+01
148.000      1.07372e+01
149.000      1.02564e+01
150.000      9.74700e+00
151.000      9.22816e+00
152.000      8.72535e+00
153.000      8.26685e+00
154.000      7.87965e+00
155.000      7.58537e+00
156.000      7.39733e+00
157.000      7.31935e+00
158.000      7.34653e+00
159.000      7.46718e+00
160.000      7.66489e+00
161.000      7.91980e+00
162.000      8.20906e+00
163.000      8.50714e+00
164.000      8.78714e+00
165.000      9.02358e+00
166.000      9.19624e+00
167.000      9.29365e+00
168.000      9.31469e+00
169.000      9.26760e+00
170.000      9.16659e+00
171.000      9.02779e+00
172.000      8.86614e+00
173.000      8.69440e+00
174.000      8.52399e+00
175.000      8.36674e+00
176.000      8.23575e+00
177.000      8.14477e+00
178.000      8.10601e+00
179.000      8.12724e+00
180.000      8.20942e+00
181.000      8.34567e+00
182.000      8.52190e+00
183.000      8.71934e+00
184.000      8.91846e+00
185.000      9.10384e+00
186.000      9.26844e+00
187.000      9.41579e+00
188.000      9.55854e+00
189.000      9.71329e+00
190.000      9.89311e+00
191.000      1.01006e+01
192.000      1.03248e+01
193.000      1.05434e+01
194.000      1.07298e+01
195.000      1.08629e+01
196.000      1.09354e+01
197.000      1.09577e+01
198.000      1.09572e+01
199.000      1.09712e+01
200.000      1.10384e+01
201.000      1.11885e+01
202.000      1.14348e+01
203.000      1.17697e+01
204.000      1.21652e+01
205.000      1.25776e+01
206.000      1.29554e+01
207.000      1.32481e+01
208.000      1.34147e+01
209.000      1.34290e+01
210.000      1.32826e+01
211.000      1.29843e+01
212.000      1.25572e+01
213.000      1.20348e+01
214.000      1.14565e+01
215.000      1.08633e+01
216.000      1.02960e+01
217.000      9.79314e+00
218.000      9.39085e+00
219.000      9.12125e+00
220.000      9.00928e+00
221.000      9.06778e+00
222.000      9.29240e+00
223.000      9.65868e+00
224.000      1.01238e+01
225.000      1.06333e+01
226.000      1.11317e+01
227.000      1.15734e+01
228.000      1.19303e+01
229.000      1.21940e+01
230.000      1.23729e+01
231.000      1.24850e+01
232.000      1.25506e+01
233.000      1.25866e+01
234.000      1.26038e+01
235.000      1.26070e+01
236.000      1.25980e+01
237.000      1.25778e+01
238.000      1.25478e+01
239.000      1.25104e+01
240.000      1.24670e+01
241.000      1.24162e+01
242.000      1.23532e+01
243.000      1.22705e+01
244.000      1.21604e+01
245.000      1.20190e+01
246.000      1.18475e+01
247.000      1.16518e+01
248.000      1.14402e+01
249.000      1.12195e+01
250.000      1.09928e+01
251.000      1.07612e+01
252.000      1.05267e+01
253.000      1.02973e+01
254.000      1.00898e+01
255.000      9.92907e+00
256.000      9.84324e+00
257.000      9.85600e+00
258.000      9.97903e+00
259.000      1.02063e+01
260.000      1.05120e+01
261.000      1.08520e+01
262.000      1.11696e+01
263.000      1.14034e+01
264.000      1.14970e+01
265.000      1.14088e+01
266.000      1.11201e+01
267.000      1.06393e+01
268.000      1.00003e+01
269.000      9.25568e+00
270.000      8.46620e+00
271.000      7.68879e+00
272.000      6.96752e+00
273.000      6.32944e+00
274.000      5.78599e+00
275.000      5.33839e+00
276.000      4.98430e+00
277.000      4.72261e+00
278.000      4.55475e+00
279.000      4.48234e+00
280.000      4.50273e+00
281.000      4.60494e+00
282.000      4.76819e+00
283.000      4.96425e+00
284.000      5.16319e+00
285.000      5.34063e+00
286.000      5.48384e+00
287.000      5.59441e+00
288.000      5.68613e+00
289.000      5.77900e+00
290.000      5.89121e+00
291.000      6.03206e+00
292.000      6.19763e+00
293.000      6.37031e+00
294.000      6.52155e+00
295.000      6.61677e+00
296.000      6.62125e+00
297.000      6.50619e+00
298.000      6.25450e+00
299.000      5.86548e+00
300.000      5.35741e+00
301.000      4.76679e+00
302.000      4.14369e+00
303.000      3.54381e+00
304.000      3.01919e+00
305.000      2.60992e+00
306.000      2.33947e+00
307.000      2.21431e+00
308.000      2.22744e+00
309.000      2.36403e+00
310.000      2.60700e+00
311.000      2.94113e+00
312.000      3.35517e+00
313.000      3.84237e+00
314.000      4.40001e+00
315.000      5.02839e+00
316.000      5.72896e+00
317.000      6.50164e+00
318.000      7.34127e+00
319.000      8.23430e+00
320.000      9.15716e+00
321.000      1.00776e+01
322.000      1.09596e+01
323.000      1.17705e+01
324.000      1.24878e+01
325.000      1.31044e+01
326.000      1.36283e+01
327.000      1.40785e+01
328.000      1.44782e+01
329.000      1.48476e+01
330.000      1.51992e+01
331.000      1.55364e+01
332.000      1.58556e+01
333.000      1.61505e+01
334.000      1.64162e+01
335.000      1.66543e+01
336.000      1.68744e+01
337.000      1.70941e+01
338.000      1.73358e+01
339.000      1.76212e+01
340.000      1.79658e+01
341.000      1.83740e+01
342.000      1.88379e+01
343.000      1.93390e+01
344.000      1.98535e+01
345.000      2.03561e+01
346.000      2.08243e+01
347.000      2.12383e+01
348.000      2.15802e+01
349.000      2.18311e+01
350.000      2.19705e+01
351.000      2.19765e+01
352.000      2.18292e+01
353.000      2.15137e+01
354.000      2.10250e+01
355.000      2.03696e+01
356.000      1.95678e+01
357.000      1.86527e+01
358.000      1.76672e+01
359.000      1.66589e+01
360.000      1.56729e+01
361.000      1.47448e+01
362.000      1.38938e+01
363.000      1.31207e+01
364.000      1.24104e+01
365.000      1.17398e+01
366.000      1.10870e+01
367.000      1.04409e+01
368.000      9.80538e+00
369.000      9.19821e+00
370.000      8.64483e+00
371.000      8.16966e+00
372.000      7.78871e+00
373.000      7.50590e+00
374.000      7.31434e+00
375.000      7.20108e+00
376.000      7.15328e+00
377.000      7.16297e+00
378.000      7.22866e+00
379.000      7.35338e+00
380.000      7.53994e+00
381.000      7.78505e+00
382.000      8.07425e+00
383.000      8.37920e+00
384.000      8.65860e+00
385.000      8.86297e+00
386.000      8.94271e+00
387.000      8.85784e+00
388.000      8.58699e+00
389.000      8.13312e+00
390.000      7.52436e+00
391.000      6.80944e+00
392.000      6.04902e+00
393.000      5.30543e+00
394.000      4.63323e+00
395.000      4.07266e+00
396.000      3.64652e+00
397.000      3.36007e+00
398.000      3.20285e+00
399.000      3.15153e+00
400.000      3.17357e+00
401.000      3.23152e+00
402.000      3.28819e+00
403.000      3.31200e+00
404.000      3.28152e+00
405.000      3.18799e+00
406.000      3.03503e+00
407.000      2.83574e+00
408.000      2.60835e+00
409.000      2.37192e+00
410.000      2.14331e+00
411.000      1.93568e+00
412.000      1.75803e+00
413.000      1.61495e+00
414.000      1.50611e+00
415.000      1.42576e+00
416.000      1.36307e+00
417.000      1.30384e+00
418.000      1.23370e+00
419.000      1.14184e+00
420.000      1.02390e+00
421.000      8.83014e-01
422.000      7.28458e-01
423.000      5.72736e-01
424.000      4.28079e-01
425.000      3.03660e-01
426.000      2.04204e-01
427.000      1.30089e-01
428.000      7.84723e-02
429.000      4.48079e-02
430.000      2.42142e-02
431.000      1.23825e-02
432.000      5.99143e-03
433.000      2.74292e-03
434.000      1.18807e-03
435.000      4.86866e-04
436.000      1.88758e-04
437.000      6.92349e-05
438.000      2.40253e-05
439.000      7.88738e-06
440.000      2.44972e-06
441.000      7.19813e-07
442.000      2.00097e-07
443.000      5.26236e-08
444.000      1.30930e-08
445.000      3.08187e-09
446.000      6.86289e-10
447.000      1.44583e-10
448.000      2.88169e-11
449.000      5.43367e-12
450.000      9.69297e-13
451.000      1.63583e-13
452.000      2.61179e-14
453.000      3.94507e-15
454.000      5.63753e-16
455.000      7.62150e-17
456.000      9.74788e-18
457.000      1.17950e-18
458.000      1.35021e-19
459.000      1.46226e-20
460.000      1.49818e-21
461.000      1.45218e-22
462.000      1.33167e-23
463.000      1.15529e-24
464.000      9.48200e-26
465.000      7.36255e-27
466.000      5.40846e-28
467.000      3.75869e-29
468.000      2.47125e-30
469.000      1.53715e-31
470.000      9.04548e-33
471.000      5.03576e-34
472.000      2.65226e-35
473.000      1.32156e-36
474.000      6.22976e-38
475.000      2.77828e-39
476.000      1.17219e-40
477.000      4.67882e-42
478.000      1.76682e-43
479.000      6.31201e-45
480.000      2.13334e-46
481.000      6.82133e-48
482.000      2.06346e-49
483.000      5.90528e-51
484.000      1.59883e-52
485.000      4.09528e-54
486.000      9.92386e-56
487.000      2.27508e-57
488.000      4.93433e-59
489.000      1.01246e-60
490.000      1.96538e-62
491.000      3.60938e-64
492.000      6.27098e-66
493.000      1.03076e-67
494.000      1.60286e-69
495.000      2.35804e-71
496.000      3.28189e-73
497.000      4.32131e-75
498.000      5.38300e-77
499.000      6.34382e-79
500.000      7.07285e-81
