# Gaussian folded, width=10 cm^-1
# [cm^-1] arbitrary
0.000      3.00000e+00
1.000      2.91796e+00
2.000      2.68508e+00
3.000      2.33749e+00
4.000      1.92514e+00
5.000      1.50000e+00
6.000      1.10570e+00
7.000      7.71085e-01
8.000      5.08727e-01
9.000      3.17530e-01
10.000      1.87501e-01
11.000      1.04749e-01
12.000      5.53715e-02
13.000      2.77194e-02
14.000      1.32142e-02
15.000      6.20684e-03
16.000      3.42604e-03
17.000      3.42960e-03
18.000      6.32189e-03
19.000      1.38789e-02
20.000      3.01399e-02
21.000      6.24312e-02
22.000      1.22628e-01
23.000      2.28198e-01
24.000      4.02269e-01
25.000      6.71736e-01
26.000      1.06258e+00
27.000      1.59224e+00
28.000      2.26017e+00
29.000      3.03920e+00
30.000      3.87139e+00
31.000      4.67154e+00
32.000      5.33996e+00
33.000      5.78225e+00
34.000      5.93110e+00
35.000      5.76305e+00
36.000      5.30467e+00
37.000      4.62584e+00
38.000      3.82280e+00
39.000      2.99665e+00
40.000      2.23446e+00
41.000      1.59803e+00
42.000      1.12198e+00
43.000      8.19450e-01
44.000      6.91494e-01
45.000      7.35678e-01
46.000      9.50573e-01
47.000      1.33459e+00
48.000      1.87980e+00
49.000      2.56320e+00
50.000      3.33933e+00
51.000      4.13804e+00
52.000      4.87017e+00
53.000      5.44125e+00
54.000      5.77019e+00
55.000      5.80759e+00
56.000      5.54765e+00
57.000      5.02963e+00
58.000      4.32839e+00
59.000      3.53714e+00
60.000      2.74828e+00
61.000      2.03786e+00
62.000      1.45764e+00
63.000      1.03517e+00
64.000      7.79897e-01
65.000      6.91612e-01
66.000      7.67413e-01
67.000      1.00477e+00
68.000      1.39980e+00
69.000      1.94185e+00
70.000      2.60697e+00
71.000      3.35352e+00
72.000      4.12292e+00
73.000      4.84694e+00
74.000      5.46091e+00
75.000      5.91948e+00
76.000      6.21015e+00
77.000      6.35993e+00
78.000      6.43204e+00
79.000      6.51307e+00
80.000      6.69376e+00
81.000      7.04912e+00
82.000      7.62353e+00
83.000      8.42446e+00
84.000      9.42550e+00
85.000      1.05760e+01
86.000      1.18124e+01
87.000      1.30678e+01
88.000      1.42754e+01
89.000      1.53682e+01
90.000      1.62769e+01
91.000      1.69301e+01
92.000      1.72602e+01
93.000      1.72146e+01
94.000      1.67699e+01
95.000      1.59425e+01
96.000      1.47923e+01
97.000      1.34158e+01
98.000      1.19313e+01
99.000      1.04595e+01
100.000      9.10700e+00
101.000      7.95587e+00
102.000      7.06240e+00
103.000      6.46096e+00
104.000      6.17008e+00
105.000      6.19655e+00
106.000      6.53602e+00
107.000      7.17087e+00
108.000      8.06790e+00
109.000      9.17837e+00
110.000      1.04415e+01
111.000      1.17907e+01
112.000      1.31614e+01
113.000      1.44960e+01
114.000      1.57467e+01
115.000      1.68735e+01
116.000      1.78413e+01
117.000      1.86158e+01
118.000      1.91624e+01
119.000      1.94497e+01
120.000      1.94551e+01
121.000      1.91735e+01
122.000      1.86230e+01
123.000      1.78481e+01
124.000      1.69164e+01
125.000      1.59112e+01
126.000      1.49196e+01
127.000      1.40209e+01
128.000      1.32760e+01
129.000      1.27213e+01
130.000      1.23672e+01
131.000      1.22010e+01
132.000      1.21944e+01
133.000      1.23107e+01
134.000      1.25118e+01
135.000      1.27620e+01
136.000      1.30274e+01
137.000      1.32736e+01
138.000      1.34638e+01
139.000      1.35581e+01
140.000      1.35172e+01
141.000      1.33091e+01
142.000      1.29163e+01
143.000      1.23415e+01
144.000      1.16096e+01
145.000      1.07643e+01
146.000      9.86106e+00
147.000      8.95679e+00
148.000      8.10022e+00
149.000      7.32463e+00
150.000      6.64514e+00
151.000      6.06068e+00
152.000      5.55972e+00
153.000      5.12793e+00
154.000      4.75566e+00
155.000      4.44357e+00
156.000      4.20498e+00
157.000      4.06437e+00
158.000      4.05195e+00
159.000      4.19544e+00
160.000      4.51075e+00
161.000      4.99412e+00
162.000      5.61857e+00
163.000      6.33662e+00
164.000      7.09005e+00
165.000      7.82538e+00
166.000      8.51101e+00
167.000      9.15018e+00
168.000      9.78370e+00
169.000      1.04786e+01
170.000      1.13045e+01
171.000      1.23041e+01
172.000      1.34693e+01
173.000      1.47335e+01
174.000      1.59830e+01
175.000      1.70876e+01
176.000      1.79373e+01
177.000      1.84733e+01
178.000      1.87035e+01
179.000      1.86954e+01
180.000      1.85523e+01
181.000      1.83794e+01
182.000      1.82514e+01
183.000      1.81921e+01
184.000      1.81713e+01
185.000      1.81226e+01
186.000      1.79759e+01
187.000      1.76963e+01
188.000      1.73157e+01
189.000      1.69455e+01
190.000      1.67618e+01
191.000      1.69639e+01
192.000      1.77174e+01
193.000      1.90981e+01
194.000      2.10553e+01
195.000      2.34091e+01
196.000      2.58843e+01
197.000      2.81732e+01
198.000      3.00087e+01
199.000      3.12246e+01
200.000      3.17849e+01
201.000      3.17732e+01
202.000      3.13475e+01
203.000      3.06789e+01
204.000      2.98953e+01
205.000      2.90497e+01
206.000      2.81216e+01
207.000      2.70450e+01
208.000      2.57505e+01
209.000      2.42010e+01
210.000      2.24109e+01
211.000      2.04445e+01
212.000      1.83988e+01
213.000      1.63811e+01
214.000      1.44891e+01
215.000      1.27994e+01
216.000      1.13612e+01
217.000      1.01952e+01
218.000      9.29257e+00
219.000      8.61605e+00
220.000      8.10379e+00
221.000      7.67808e+00
222.000      7.25920e+00
223.000      6.78186e+00
224.000      6.20991e+00
225.000      5.54513e+00
226.000      4.82744e+00
227.000      4.12714e+00
228.000      3.53167e+00
229.000      3.13057e+00
230.000      3.00200e+00
231.000      3.20216e+00
232.000      3.75812e+00
233.000      4.66380e+00
234.000      5.87923e+00
235.000      7.33372e+00
236.000      8.93369e+00
237.000      1.05747e+01
238.000      1.21553e+01
239.000      1.35899e+01
240.000      1.48157e+01
241.000      1.57923e+01
242.000      1.64955e+01
243.000      1.69083e+01
244.000      1.70144e+01
245.000      1.67987e+01
246.000      1.62540e+01
247.000      1.53921e+01
248.000      1.42515e+01
249.000      1.28994e+01
250.000      1.14239e+01
251.000      9.91959e+00
252.000      8.47179e+00
253.000      7.14484e+00
254.000      5.97703e+00
255.000      4.98280e+00
256.000      4.15958e+00
257.000      3.49586e+00
258.000      2.97847e+00
259.000      2.59825e+00
260.000      2.35498e+00
261.000      2.26170e+00
262.000      2.34822e+00
263.000      2.66211e+00
264.000      3.26531e+00
265.000      4.22519e+00
266.000      5.60030e+00
267.000      7.42303e+00
268.000      9.68322e+00
269.000      1.23170e+01
270.000      1.52059e+01
271.000      1.81877e+01
272.000      2.10807e+01
273.000      2.37148e+01
274.000      2.59649e+01
275.000      2.77751e+01
276.000      2.91669e+01
277.000      3.02270e+01
278.000      3.10757e+01
279.000      3.18246e+01
280.000      3.25357e+01
281.000      3.31939e+01
282.000      3.37035e+01
283.000      3.39100e+01
284.000      3.36403e+01
285.000      3.27522e+01
286.000      3.11759e+01
287.000      2.89385e+01
288.000      2.61644e+01
289.000      2.30530e+01
290.000      1.98411e+01
291.000      1.67607e+01
292.000      1.40022e+01
293.000      1.16908e+01
294.000      9.87944e+00
295.000      8.55605e+00
296.000      7.66124e+00
297.000      7.10943e+00
298.000      6.80812e+00
299.000      6.67172e+00
300.000      6.62847e+00
301.000      6.62167e+00
302.000      6.60714e+00
303.000      6.54966e+00
304.000      6.42050e+00
305.000      6.19718e+00
306.000      5.86559e+00
307.000      5.42337e+00
308.000      4.88299e+00
309.000      4.27275e+00
310.000      3.63470e+00
311.000      3.01947e+00
312.000      2.47900e+00
313.000      2.05895e+00
314.000      1.79246e+00
315.000      1.69647e+00
316.000      1.77085e+00
317.000      2.00004e+00
318.000      2.35620e+00
319.000      2.80285e+00
320.000      3.29805e+00
321.000      3.79700e+00
322.000      4.25397e+00
323.000      4.62452e+00
324.000      4.86884e+00
325.000      4.95643e+00
326.000      4.87178e+00
327.000      4.61911e+00
328.000      4.22430e+00
329.000      3.73222e+00
330.000      3.19925e+00
331.000      2.68264e+00
332.000      2.22931e+00
333.000      1.86752e+00
334.000      1.60345e+00
335.000      1.42348e+00
336.000      1.30101e+00
337.000      1.20539e+00
338.000      1.11036e+00
339.000      9.99614e-01
340.000      8.68557e-01
341.000      7.22469e-01
342.000      5.72444e-01
343.000      4.30793e-01
344.000      3.07392e-01
345.000      2.07771e-01
346.000      1.32956e-01
347.000      8.05240e-02
348.000      4.61490e-02
349.000      2.50250e-02
350.000      1.28391e-02
351.000      6.23209e-03
352.000      2.86194e-03
353.000      1.24340e-03
354.000      5.11071e-04
355.000      1.98734e-04
356.000      7.31108e-05
357.000      2.54454e-05
358.000      8.37828e-06
359.000      2.60987e-06
360.000      7.69130e-07
361.000      2.14436e-07
362.000      5.65608e-08
363.000      1.41140e-08
364.000      3.33197e-09
365.000      7.44167e-10
366.000      1.57238e-10
367.000      3.14313e-11
368.000      5.94408e-12
369.000      1.06347e-12
370.000      1.80004e-13
371.000      2.88242e-14
372.000      4.36666e-15
373.000      6.25835e-16
374.000      8.48570e-17
375.000      1.08851e-17
376.000      1.32098e-18
377.000      1.51662e-19
378.000      1.64731e-20
379.000      1.69274e-21
380.000      1.64560e-22
381.000      1.51348e-23
382.000      1.31687e-24
383.000      1.08400e-25
384.000      8.44178e-27
385.000      6.21950e-28
386.000      4.33506e-29
387.000      2.85859e-30
388.000      1.78331e-31
389.000      1.05249e-32
390.000      5.87661e-34
391.000      3.10423e-35
392.000      1.55131e-36
393.000      7.33434e-38
394.000      3.28051e-39
395.000      1.38816e-40
396.000      5.55716e-42
397.000      2.10468e-43
398.000      7.54113e-45
399.000      2.55625e-46
400.000      8.19765e-48
401.000      2.48710e-49
402.000      7.13860e-51
403.000      1.93844e-52
404.000      4.97975e-54
405.000      1.21027e-55
406.000      2.78274e-57
407.000      6.05314e-59
408.000      1.24568e-60
409.000      2.42522e-62
410.000      4.46696e-64
411.000      7.78379e-66
412.000      1.28318e-67
413.000      2.00125e-69
414.000      2.95280e-71
415.000      4.12177e-73
416.000      5.44315e-75
417.000      6.80041e-77
418.000      8.03780e-79
419.000      8.98788e-81
420.000      9.50812e-83
421.000      9.51590e-85
422.000      9.00995e-87
423.000      8.07073e-89
424.000      6.83944e-91
425.000      5.48335e-93
426.000      4.15900e-95
427.000      2.98435e-97
428.000      2.02595e-99
429.000     1.30114e-101
430.000     7.90565e-104
431.000     4.54432e-106
432.000     2.47125e-108
433.000     1.27140e-110
434.000     6.18824e-113
435.000     2.84950e-115
436.000     1.24133e-117
437.000     5.11593e-120
438.000     1.99471e-122
439.000     7.35785e-125
440.000     2.56768e-127
441.000     8.47710e-130
442.000     2.64772e-132
443.000     7.82374e-135
444.000     2.18713e-137
445.000     5.78431e-140
446.000     1.44726e-142
447.000     3.42578e-145
448.000     7.67166e-148
449.000     1.62531e-150
450.000     3.25764e-153
451.000     6.17712e-156
452.000     1.10812e-158
453.000     1.88064e-161
454.000     3.01954e-164
455.000     4.58664e-167
456.000     6.59121e-170
457.000     8.96095e-173
458.000     1.15255e-175
459.000     1.40244e-178
460.000     1.61445e-181
461.000     1.75827e-184
462.000     1.81160e-187
463.000     1.76586e-190
464.000     1.62842e-193
465.000     1.42068e-196
466.000     1.17258e-199
467.000     9.15606e-203
468.000     6.76381e-206
469.000     4.72706e-209
470.000     3.12542e-212
471.000     1.95499e-215
472.000     1.15690e-218
473.000     6.47689e-222
474.000     3.43048e-225
475.000     1.71894e-228
476.000     8.14860e-232
477.000     3.65446e-235
478.000     1.55054e-238
479.000     6.22383e-242
480.000     2.36348e-245
481.000     8.49107e-249
482.000     2.88597e-252
483.000     9.27977e-256
484.000     2.82294e-259
485.000     8.12424e-263
486.000     2.21198e-266
487.000     5.69769e-270
488.000     1.38846e-273
489.000     3.20099e-277
490.000     6.98159e-281
491.000     1.44059e-284
492.000     2.81220e-288
493.000     5.19360e-292
494.000     9.07420e-296
495.000     1.49991e-299
496.000     2.34553e-303
497.000     3.47003e-307
498.000     4.85673e-311
499.000     6.43090e-315
500.000     8.05594e-319
