# Gaussian folded, width=10 cm^-1
# [cm^-1] arbitrary
0.000      3.00000e+00
1.000      2.91796e+00
2.000      2.68508e+00
3.000      2.33749e+00
4.000      1.92514e+00
5.000      1.50000e+00
6.000      1.10570e+00
7.000      7.71085e-01
8.000      5.08727e-01
9.000      3.17529e-01
10.000      1.87500e-01
11.000      1.04746e-01
12.000      5.53590e-02
13.000      2.76795e-02
14.000      1.30932e-02
15.000      5.85938e-03
16.000      2.48073e-03
17.000      9.93729e-04
18.000      3.76974e-04
19.000      1.36667e-04
20.000      5.15935e-05
21.000      3.36100e-05
22.000      6.27674e-05
23.000      1.71514e-04
24.000      4.71289e-04
25.000      1.23479e-03
26.000      3.06839e-03
27.000      7.22907e-03
28.000      1.61500e-02
29.000      3.42196e-02
30.000      6.87850e-02
31.000      1.31201e-01
32.000      2.37536e-01
33.000      4.08309e-01
34.000      6.66576e-01
35.000      1.03382e+00
36.000      1.52372e+00
37.000      2.13486e+00
38.000      2.84422e+00
39.000      3.60418e+00
40.000      4.34520e+00
41.000      4.98501e+00
42.000      5.44315e+00
43.000      5.65739e+00
44.000      5.59747e+00
45.000      5.27210e+00
46.000      4.72684e+00
47.000      4.03374e+00
48.000      3.27588e+00
49.000      2.53130e+00
50.000      1.86059e+00
51.000      1.30056e+00
52.000      8.64313e-01
53.000      5.45978e-01
54.000      3.27867e-01
55.000      1.87492e-01
56.000      1.03015e-01
57.000      5.65888e-02
58.000      3.58512e-02
59.000      3.42650e-02
60.000      5.09812e-02
61.000      9.06652e-02
62.000      1.63351e-01
63.000      2.84027e-01
64.000      4.71424e-01
65.000      7.45445e-01
66.000      1.12297e+00
67.000      1.61231e+00
68.000      2.20734e+00
69.000      2.88298e+00
70.000      3.59379e+00
71.000      4.27721e+00
72.000      4.86170e+00
73.000      5.27853e+00
74.000      5.47485e+00
75.000      5.42452e+00
76.000      5.13398e+00
77.000      4.64127e+00
78.000      4.00866e+00
79.000      3.31073e+00
80.000      2.62135e+00
81.000      2.00261e+00
82.000      1.49790e+00
83.000      1.12990e+00
84.000      9.02634e-01
85.000      8.05891e-01
86.000      8.20602e-01
87.000      9.23908e-01
88.000      1.09346e+00
89.000      1.31065e+00
90.000      1.56239e+00
91.000      1.84114e+00
92.000      2.14285e+00
93.000      2.46334e+00
94.000      2.79441e+00
95.000      3.12135e+00
96.000      3.42327e+00
97.000      3.67651e+00
98.000      3.86005e+00
99.000      3.96093e+00
100.000      3.97782e+00
101.000      3.92189e+00
102.000      3.81526e+00
103.000      3.68835e+00
104.000      3.57706e+00
105.000      3.52034e+00
106.000      3.55738e+00
107.000      3.72387e+00
108.000      4.04667e+00
109.000      4.53781e+00
110.000      5.18932e+00
111.000      5.97103e+00
112.000      6.83287e+00
113.000      7.71218e+00
114.000      8.54473e+00
115.000      9.27688e+00
116.000      9.87535e+00
117.000      1.03317e+01
118.000      1.06594e+01
119.000      1.08850e+01
120.000      1.10350e+01
121.000      1.11246e+01
122.000      1.11514e+01
123.000      1.10973e+01
124.000      1.09372e+01
125.000      1.06515e+01
126.000      1.02367e+01
127.000      9.71076e+00
128.000      9.11028e+00
129.000      8.48112e+00
130.000      7.86679e+00
131.000      7.29861e+00
132.000      6.79140e+00
133.000      6.34604e+00
134.000      5.95706e+00
135.000      5.62186e+00
136.000      5.34734e+00
137.000      5.15086e+00
138.000      5.05513e+00
139.000      5.07923e+00
140.000      5.22970e+00
141.000      5.49572e+00
142.000      5.85058e+00
143.000      6.25865e+00
144.000      6.68462e+00
145.000      7.10095e+00
146.000      7.49065e+00
147.000      7.84482e+00
148.000      8.15747e+00
149.000      8.42116e+00
150.000      8.62674e+00
151.000      8.76806e+00
152.000      8.84964e+00
153.000      8.89316e+00
154.000      8.93871e+00
155.000      9.03844e+00
156.000      9.24370e+00
157.000      9.58936e+00
158.000      1.00808e+01
159.000      1.06882e+01
160.000      1.13498e+01
161.000      1.19853e+01
162.000      1.25138e+01
163.000      1.28730e+01
164.000      1.30337e+01
165.000      1.30052e+01
166.000      1.28302e+01
167.000      1.25708e+01
168.000      1.22905e+01
169.000      1.20370e+01
170.000      1.18324e+01
171.000      1.16712e+01
172.000      1.15254e+01
173.000      1.13551e+01
174.000      1.11190e+01
175.000      1.07831e+01
176.000      1.03263e+01
177.000      9.74321e+00
178.000      9.04393e+00
179.000      8.25316e+00
180.000      7.40770e+00
181.000      6.55292e+00
182.000      5.73823e+00
183.000      5.01177e+00
184.000      4.41500e+00
185.000      3.97807e+00
186.000      3.71681e+00
187.000      3.63139e+00
188.000      3.70692e+00
189.000      3.91535e+00
190.000      4.21863e+00
191.000      4.57306e+00
192.000      4.93482e+00
193.000      5.26627e+00
194.000      5.54187e+00
195.000      5.75237e+00
196.000      5.90552e+00
197.000      6.02272e+00
198.000      6.13218e+00
199.000      6.26024e+00
200.000      6.42354e+00
201.000      6.62433e+00
202.000      6.85037e+00
203.000      7.07930e+00
204.000      7.28585e+00
205.000      7.44951e+00
206.000      7.55970e+00
207.000      7.61665e+00
208.000      7.62782e+00
209.000      7.60152e+00
210.000      7.54048e+00
211.000      7.43870e+00
212.000      7.28294e+00
213.000      7.05848e+00
214.000      6.75690e+00
215.000      6.38238e+00
216.000      5.95412e+00
217.000      5.50376e+00
218.000      5.06841e+00
219.000      4.68167e+00
220.000      4.36497e+00
221.000      4.12200e+00
222.000      3.93762e+00
223.000      3.78183e+00
224.000      3.61781e+00
225.000      3.41182e+00
226.000      3.14206e+00
227.000      2.80396e+00
228.000      2.41051e+00
229.000      1.98776e+00
230.000      1.56751e+00
231.000      1.17954e+00
232.000      8.45654e-01
233.000      5.76983e-01
234.000      3.74334e-01
235.000      2.30782e-01
236.000      1.35135e-01
237.000      7.51238e-02
238.000      3.96350e-02
239.000      1.98400e-02
240.000      9.42001e-03
241.000      4.24138e-03
242.000      1.81058e-03
243.000      7.32660e-04
244.000      2.80987e-04
245.000      1.02118e-04
246.000      3.51636e-05
247.000      1.14710e-05
248.000      3.54487e-06
249.000      1.03865e-06
250.000      2.93076e-07
251.000      9.90155e-08
252.000      1.13744e-07
253.000      3.67078e-07
254.000      1.31103e-06
255.000      4.47738e-06
256.000      1.44763e-05
257.000      4.42850e-05
258.000      1.28177e-04
259.000      3.51024e-04
260.000      9.09609e-04
261.000      2.23048e-03
262.000      5.17619e-03
263.000      1.13700e-02
264.000      2.36448e-02
265.000      4.65668e-02
266.000      8.68905e-02
267.000      1.53708e-01
268.000      2.58012e-01
269.000      4.11476e-01
270.000      6.24540e-01
271.000      9.04286e-01
272.000      1.25291e+00
273.000      1.66758e+00
274.000      2.14197e+00
275.000      2.66858e+00
276.000      3.24037e+00
277.000      3.84970e+00
278.000      4.48412e+00
279.000      5.12039e+00
280.000      5.72052e+00
281.000      6.23394e+00
282.000      6.60822e+00
283.000      6.80705e+00
284.000      6.82969e+00
285.000      6.72424e+00
286.000      6.58757e+00
287.000      6.54955e+00
288.000      6.74429e+00
289.000      7.27633e+00
290.000      8.19177e+00
291.000      9.46285e+00
292.000      1.09904e+01
293.000      1.26227e+01
294.000      1.41851e+01
295.000      1.55108e+01
296.000      1.64672e+01
297.000      1.69717e+01
298.000      1.69979e+01
299.000      1.65755e+01
300.000      1.57865e+01
301.000      1.47572e+01
302.000      1.36459e+01
303.000      1.26227e+01
304.000      1.18423e+01
305.000      1.14134e+01
306.000      1.13732e+01
307.000      1.16759e+01
308.000      1.21996e+01
309.000      1.27743e+01
310.000      1.32219e+01
311.000      1.34003e+01
312.000      1.32400e+01
313.000      1.27621e+01
314.000      1.20768e+01
315.000      1.13599e+01
316.000      1.08147e+01
317.000      1.06285e+01
318.000      1.09326e+01
319.000      1.17750e+01
320.000      1.31120e+01
321.000      1.48195e+01
322.000      1.67206e+01
323.000      1.86230e+01
324.000      2.03572e+01
325.000      2.18054e+01
326.000      2.29172e+01
327.000      2.37074e+01
328.000      2.42398e+01
329.000      2.46005e+01
330.000      2.48707e+01
331.000      2.51042e+01
332.000      2.53172e+01
333.000      2.54900e+01
334.000      2.55795e+01
335.000      2.55367e+01
336.000      2.53236e+01
337.000      2.49251e+01
338.000      2.43542e+01
339.000      2.36515e+01
340.000      2.28794e+01
341.000      2.21143e+01
342.000      2.14363e+01
343.000      2.09175e+01
344.000      2.06111e+01
345.000      2.05414e+01
346.000      2.07000e+01
347.000      2.10474e+01
348.000      2.15222e+01
349.000      2.20543e+01
350.000      2.25810e+01
351.000      2.30591e+01
352.000      2.34725e+01
353.000      2.38318e+01
354.000      2.41660e+01
355.000      2.45095e+01
356.000      2.48865e+01
357.000      2.52982e+01
358.000      2.57162e+01
359.000      2.60844e+01
360.000      2.63294e+01
361.000      2.63765e+01
362.000      2.61651e+01
363.000      2.56613e+01
364.000      2.48619e+01
365.000      2.37922e+01
366.000      2.24988e+01
367.000      2.10398e+01
368.000      1.94765e+01
369.000      1.78677e+01
370.000      1.62664e+01
371.000      1.47198e+01
372.000      1.32697e+01
373.000      1.19541e+01
374.000      1.08076e+01
375.000      9.86060e+00
376.000      9.13737e+00
377.000      8.65475e+00
378.000      8.42222e+00
379.000      8.44487e+00
380.000      8.72784e+00
381.000      9.27982e+00
382.000      1.01121e+01
383.000      1.12313e+01
384.000      1.26276e+01
385.000      1.42630e+01
386.000      1.60675e+01
387.000      1.79472e+01
388.000      1.98030e+01
389.000      2.15539e+01
390.000      2.31508e+01
391.000      2.45758e+01
392.000      2.58223e+01
393.000      2.68659e+01
394.000      2.76411e+01
395.000      2.80363e+01
396.000      2.79134e+01
397.000      2.71471e+01
398.000      2.56692e+01
399.000      2.35009e+01
400.000      2.07617e+01
401.000      1.76514e+01
402.000      1.44121e+01
403.000      1.12824e+01
404.000      8.45743e+00
405.000      6.06424e+00
406.000      4.15561e+00
407.000      2.71970e+00
408.000      1.69957e+00
409.000      1.01545e+00
410.000      5.84028e-01
411.000      3.31907e-01
412.000      2.02570e-01
413.000      1.58077e-01
414.000      1.77260e-01
415.000      2.52053e-01
416.000      3.83036e-01
417.000      5.74798e-01
418.000      8.31488e-01
419.000      1.15298e+00
420.000      1.53220e+00
421.000      1.95422e+00
422.000      2.39741e+00
423.000      2.83644e+00
424.000      3.24616e+00
425.000      3.60519e+00
426.000      3.89776e+00
427.000      4.11345e+00
428.000      4.24514e+00
429.000      4.28673e+00
430.000      4.23203e+00
431.000      4.07599e+00
432.000      3.81805e+00
433.000      3.46589e+00
434.000      3.03794e+00
435.000      2.56271e+00
436.000      2.07512e+00
437.000      1.61063e+00
438.000      1.19945e+00
439.000      8.62558e-01
440.000      6.10462e-01
441.000      4.44463e-01
442.000      3.59277e-01
443.000      3.45608e-01
444.000      3.91692e-01
445.000      4.83615e-01
446.000      6.04959e-01
447.000      7.36714e-01
448.000      8.58328e-01
449.000      9.50125e-01
450.000      9.96616e-01
451.000      9.89596e-01
452.000      9.29834e-01
453.000      8.26625e-01
454.000      6.95254e-01
455.000      5.53225e-01
456.000      4.16466e-01
457.000      2.96603e-01
458.000      1.99843e-01
459.000      1.27386e-01
460.000      7.68193e-02
461.000      4.38266e-02
462.000      2.36549e-02
463.000      1.20788e-02
464.000      5.83504e-03
465.000      2.66674e-03
466.000      1.15302e-03
467.000      4.71638e-04
468.000      1.82515e-04
469.000      6.68201e-05
470.000      2.31437e-05
471.000      7.58360e-06
472.000      2.35091e-06
473.000      6.89468e-07
474.000      1.91298e-07
475.000      5.02138e-08
476.000      1.24696e-08
477.000      2.92956e-09
478.000      6.51132e-10
479.000      1.36916e-10
480.000      2.72367e-11
481.000      5.12594e-12
482.000      9.12662e-13
483.000      1.53732e-13
484.000      2.44983e-14
485.000      3.69339e-15
486.000      5.26784e-16
487.000      7.10815e-17
488.000      9.07400e-18
489.000      1.09587e-18
490.000      1.25209e-19
491.000      1.35342e-20
492.000      1.38402e-21
493.000      1.33898e-22
494.000      1.22552e-23
495.000      1.06118e-24
496.000      8.69301e-26
497.000      6.73707e-27
498.000      4.93957e-28
499.000      3.42630e-29
500.000      2.24842e-30
