# Gaussian folded, width=10 cm^-1
# [cm^-1] arbitrary
0.000      3.00000e+00
1.000      2.91796e+00
2.000      2.68508e+00
3.000      2.33749e+00
4.000      1.92514e+00
5.000      1.50000e+00
6.000      1.10570e+00
7.000      7.71085e-01
8.000      5.08727e-01
9.000      3.17529e-01
10.000      1.87500e-01
11.000      1.04746e-01
12.000      5.53592e-02
13.000      2.76800e-02
14.000      1.30950e-02
15.000      5.86547e-03
16.000      2.50067e-03
17.000      1.05563e-03
18.000      5.59034e-04
19.000      6.44009e-04
20.000      1.39121e-03
21.000      3.38520e-03
22.000      8.00782e-03
23.000      1.80155e-02
24.000      3.84372e-02
25.000      7.77488e-02
26.000      1.49099e-01
27.000      2.71090e-01
28.000      4.67338e-01
29.000      7.63920e-01
30.000      1.18409e+00
31.000      1.74044e+00
32.000      2.42600e+00
33.000      3.20697e+00
34.000      4.02058e+00
35.000      4.78065e+00
36.000      5.39140e+00
37.000      5.76694e+00
38.000      5.85097e+00
39.000      5.63064e+00
40.000      5.13975e+00
41.000      4.45027e+00
42.000      3.65510e+00
43.000      2.84775e+00
44.000      2.10508e+00
45.000      1.47731e+00
46.000      9.86494e-01
47.000      6.31923e-01
48.000      3.99233e-01
49.000      2.70115e-01
50.000      2.30250e-01
51.000      2.74263e-01
52.000      4.07301e-01
53.000      6.43211e-01
54.000      9.99450e-01
55.000      1.48923e+00
56.000      2.11215e+00
57.000      2.84561e+00
58.000      3.63991e+00
59.000      4.42012e+00
60.000      5.09582e+00
61.000      5.57766e+00
62.000      5.79654e+00
63.000      5.71996e+00
64.000      5.36012e+00
65.000      4.77113e+00
66.000      4.03646e+00
67.000      3.25077e+00
68.000      2.50189e+00
69.000      1.85783e+00
70.000      1.36113e+00
71.000      1.03014e+00
72.000      8.64596e-01
73.000      8.52470e-01
74.000      9.75663e-01
75.000      1.21351e+00
76.000      1.54434e+00
77.000      1.94599e+00
78.000      2.39588e+00
79.000      2.87116e+00
80.000      3.34857e+00
81.000      3.80422e+00
82.000      4.21354e+00
83.000      4.55236e+00
84.000      4.80012e+00
85.000      4.94530e+00
86.000      4.99206e+00
87.000      4.96556e+00
88.000      4.91332e+00
89.000      4.90053e+00
90.000      4.99946e+00
91.000      5.27509e+00
92.000      5.77096e+00
93.000      6.49913e+00
94.000      7.43702e+00
95.000      8.53145e+00
96.000      9.70827e+00
97.000      1.08845e+01
98.000      1.19799e+01
99.000      1.29254e+01
100.000      1.36679e+01
101.000      1.41720e+01
102.000      1.44194e+01
103.000      1.44076e+01
104.000      1.41484e+01
105.000      1.36671e+01
106.000      1.30010e+01
107.000      1.21977e+01
108.000      1.13119e+01
109.000      1.04002e+01
110.000      9.51527e+00
111.000      8.70017e+00
112.000      7.98417e+00
113.000      7.38199e+00
114.000      6.89665e+00
115.000      6.52509e+00
116.000      6.26493e+00
117.000      6.12004e+00
118.000      6.10306e+00
119.000      6.23391e+00
120.000      6.53451e+00
121.000      7.02122e+00
122.000      7.69705e+00
123.000      8.54588e+00
124.000      9.53056e+00
125.000      1.05956e+01
126.000      1.16742e+01
127.000      1.26980e+01
128.000      1.36069e+01
129.000      1.43570e+01
130.000      1.49248e+01
131.000      1.53062e+01
132.000      1.55124e+01
133.000      1.55634e+01
134.000      1.54818e+01
135.000      1.52892e+01
136.000      1.50039e+01
137.000      1.46424e+01
138.000      1.42207e+01
139.000      1.37565e+01
140.000      1.32694e+01
141.000      1.27796e+01
142.000      1.23051e+01
143.000      1.18593e+01
144.000      1.14489e+01
145.000      1.10742e+01
146.000      1.07308e+01
147.000      1.04132e+01
148.000      1.01178e+01
149.000      9.84537e+00
150.000      9.60220e+00
151.000      9.39822e+00
152.000      9.24406e+00
153.000      9.14703e+00
154.000      9.10750e+00
155.000      9.11711e+00
156.000      9.15939e+00
157.000      9.21300e+00
158.000      9.25631e+00
159.000      9.27190e+00
160.000      9.24946e+00
161.000      9.18636e+00
162.000      9.08600e+00
163.000      8.95501e+00
164.000      8.80057e+00
165.000      8.62905e+00
166.000      8.44640e+00
167.000      8.26015e+00
168.000      8.08179e+00
169.000      7.92807e+00
170.000      7.81979e+00
171.000      7.77742e+00
172.000      7.81443e+00
173.000      7.93046e+00
174.000      8.10756e+00
175.000      8.31190e+00
176.000      8.50168e+00
177.000      8.63936e+00
178.000      8.70384e+00
179.000      8.69822e+00
180.000      8.64972e+00
181.000      8.60179e+00
182.000      8.60134e+00
183.000      8.68586e+00
184.000      8.87488e+00
185.000      9.16802e+00
186.000      9.54906e+00
187.000      9.99309e+00
188.000      1.04735e+01
189.000      1.09663e+01
190.000      1.14510e+01
191.000      1.19103e+01
192.000      1.23284e+01
193.000      1.26918e+01
194.000      1.29903e+01
195.000      1.32188e+01
196.000      1.33785e+01
197.000      1.34764e+01
198.000      1.35242e+01
199.000      1.35362e+01
200.000      1.35270e+01
201.000      1.35105e+01
202.000      1.34971e+01
203.000      1.34920e+01
204.000      1.34919e+01
205.000      1.34833e+01
206.000      1.34425e+01
207.000      1.33377e+01
208.000      1.31355e+01
209.000      1.28080e+01
210.000      1.23407e+01
211.000      1.17386e+01
212.000      1.10278e+01
213.000      1.02536e+01
214.000      9.47466e+00
215.000      8.75417e+00
216.000      8.15121e+00
217.000      7.71285e+00
218.000      7.46892e+00
219.000      7.42993e+00
220.000      7.58799e+00
221.000      7.91984e+00
222.000      8.39115e+00
223.000      8.96088e+00
224.000      9.58516e+00
225.000      1.02203e+01
226.000      1.08253e+01
227.000      1.13639e+01
228.000      1.18066e+01
229.000      1.21330e+01
230.000      1.23336e+01
231.000      1.24112e+01
232.000      1.23804e+01
233.000      1.22666e+01
234.000      1.21018e+01
235.000      1.19198e+01
236.000      1.17507e+01
237.000      1.16160e+01
238.000      1.15256e+01
239.000      1.14773e+01
240.000      1.14586e+01
241.000      1.14505e+01
242.000      1.14321e+01
243.000      1.13848e+01
244.000      1.12967e+01
245.000      1.11644e+01
246.000      1.09934e+01
247.000      1.07959e+01
248.000      1.05867e+01
249.000      1.03779e+01
250.000      1.01741e+01
251.000      9.97073e+00
252.000      9.75484e+00
253.000      9.50963e+00
254.000      9.22022e+00
255.000      8.87931e+00
256.000      8.49085e+00
257.000      8.07048e+00
258.000      7.64300e+00
259.000      7.23739e+00
260.000      6.88089e+00
261.000      6.59349e+00
262.000      6.38401e+00
263.000      6.24858e+00
264.000      6.17167e+00
265.000      6.12915e+00
266.000      6.09290e+00
267.000      6.03576e+00
268.000      5.93624e+00
269.000      5.78218e+00
270.000      5.57303e+00
271.000      5.32061e+00
272.000      5.04847e+00
273.000      4.78980e+00
274.000      4.58397e+00
275.000      4.47154e+00
276.000      4.48803e+00
277.000      4.65740e+00
278.000      4.98652e+00
279.000      5.46256e+00
280.000      6.05444e+00
281.000      6.71813e+00
282.000      7.40467e+00
283.000      8.06827e+00
284.000      8.67221e+00
285.000      9.19125e+00
286.000      9.61049e+00
287.000      9.92219e+00
288.000      1.01226e+01
289.000      1.02103e+01
290.000      1.01862e+01
291.000      1.00553e+01
292.000      9.82802e+00
293.000      9.51977e+00
294.000      9.14903e+00
295.000      8.73406e+00
296.000      8.28991e+00
297.000      7.82745e+00
298.000      7.35496e+00
299.000      6.88181e+00
300.000      6.42223e+00
301.000      5.99705e+00
302.000      5.63212e+00
303.000      5.35332e+00
304.000      5.18005e+00
305.000      5.11956e+00
306.000      5.16434e+00
307.000      5.29361e+00
308.000      5.47825e+00
309.000      5.68752e+00
310.000      5.89547e+00
311.000      6.08503e+00
312.000      6.24907e+00
313.000      6.38866e+00
314.000      6.50987e+00
315.000      6.62098e+00
316.000      6.73135e+00
317.000      6.85224e+00
318.000      6.99871e+00
319.000      7.19085e+00
320.000      7.45285e+00
321.000      7.80940e+00
322.000      8.28018e+00
323.000      8.87397e+00
324.000      9.58453e+00
325.000      1.03894e+01
326.000      1.12523e+01
327.000      1.21279e+01
328.000      1.29694e+01
329.000      1.37353e+01
330.000      1.43972e+01
331.000      1.49445e+01
332.000      1.53879e+01
333.000      1.57578e+01
334.000      1.60986e+01
335.000      1.64589e+01
336.000      1.68787e+01
337.000      1.73786e+01
338.000      1.79543e+01
339.000      1.85776e+01
340.000      1.92055e+01
341.000      1.97919e+01
342.000      2.02992e+01
343.000      2.07050e+01
344.000      2.10016e+01
345.000      2.11922e+01
346.000      2.12834e+01
347.000      2.12819e+01
348.000      2.11932e+01
349.000      2.10236e+01
350.000      2.07833e+01
351.000      2.04861e+01
352.000      2.01471e+01
353.000      1.97772e+01
354.000      1.93789e+01
355.000      1.89444e+01
356.000      1.84582e+01
357.000      1.79024e+01
358.000      1.72639e+01
359.000      1.65387e+01
360.000      1.57337e+01
361.000      1.48645e+01
362.000      1.39520e+01
363.000      1.30195e+01
364.000      1.20906e+01
365.000      1.11895e+01
366.000      1.03413e+01
367.000      9.57098e+00
368.000      8.90055e+00
369.000      8.34454e+00
370.000      7.90619e+00
371.000      7.57603e+00
372.000      7.33439e+00
373.000      7.15741e+00
374.000      7.02444e+00
375.000      6.92408e+00
376.000      6.85657e+00
377.000      6.83160e+00
378.000      6.86268e+00
379.000      6.96060e+00
380.000      7.12842e+00
381.000      7.35958e+00
382.000      7.63889e+00
383.000      7.94487e+00
384.000      8.25160e+00
385.000      8.52931e+00
386.000      8.74436e+00
387.000      8.86056e+00
388.000      8.84313e+00
389.000      8.66553e+00
390.000      8.31734e+00
391.000      7.80998e+00
392.000      7.17789e+00
393.000      6.47396e+00
394.000      5.76043e+00
395.000      5.09780e+00
396.000      4.53479e+00
397.000      4.10153e+00
398.000      3.80686e+00
399.000      3.63947e+00
400.000      3.57209e+00
401.000      3.56739e+00
402.000      3.58469e+00
403.000      3.58628e+00
404.000      3.54254e+00
405.000      3.43506e+00
406.000      3.25747e+00
407.000      3.01451e+00
408.000      2.71972e+00
409.000      2.39287e+00
410.000      2.05727e+00
411.000      1.73729e+00
412.000      1.45576e+00
413.000      1.23110e+00
414.000      1.07448e+00
415.000      9.87527e-01
416.000      9.61410e-01
417.000      9.77996e-01
418.000      1.01317e+00
419.000      1.04173e+00
420.000      1.04270e+00
421.000      1.00349e+00
422.000      9.21847e-01
423.000      8.05069e-01
424.000      6.66909e-01
425.000      5.23400e-01
426.000      3.88912e-01
427.000      2.73505e-01
428.000      1.82010e-01
429.000      1.14603e-01
430.000      6.82720e-02
431.000      3.84788e-02
432.000      2.05176e-02
433.000      1.03504e-02
434.000      4.93973e-03
435.000      2.23033e-03
436.000      9.52697e-04
437.000      3.84997e-04
438.000      1.47190e-04
439.000      5.32375e-05
440.000      1.82169e-05
441.000      5.89722e-06
442.000      1.80609e-06
443.000      5.23297e-07
444.000      1.43442e-07
445.000      3.71980e-08
446.000      9.12602e-09
447.000      2.11817e-09
448.000      4.65113e-10
449.000      9.66213e-11
450.000      1.89891e-11
451.000      3.53066e-12
452.000      6.21045e-13
453.000      1.03349e-13
454.000      1.62709e-14
455.000      2.42343e-15
456.000      3.41483e-16
457.000      4.55224e-17
458.000      5.74114e-18
459.000      6.84997e-19
460.000      7.73209e-20
461.000      8.25702e-21
462.000      8.34193e-22
463.000      7.97311e-23
464.000      7.20953e-24
465.000      6.16741e-25
466.000      4.99134e-26
467.000      3.82163e-27
468.000      2.76820e-28
469.000      1.89699e-29
470.000      1.22984e-30
471.000      7.54312e-32
472.000      4.37694e-33
473.000      2.40275e-34
474.000      1.24785e-35
475.000      6.13105e-37
476.000      2.84987e-38
477.000      1.25323e-39
478.000      5.21384e-41
479.000      2.05211e-42
480.000      7.64119e-44
481.000      2.69178e-45
482.000      8.97087e-47
483.000      2.82844e-48
484.000      8.43681e-50
485.000      2.38082e-51
486.000      6.35613e-53
487.000      1.60537e-54
488.000      3.83599e-56
489.000      8.67154e-58
490.000      1.85453e-59
491.000      3.75221e-61
492.000      7.18221e-63
493.000      1.30061e-64
494.000      2.22820e-66
495.000      3.61143e-68
496.000      5.53759e-70
497.000      8.03305e-72
498.000      1.10245e-73
499.000      1.43137e-75
500.000      1.75819e-77
