# Gaussian folded, width=10 cm^-1
# [cm^-1] arbitrary
0.000      3.00000e+00
1.000      2.91796e+00
2.000      2.68508e+00
3.000      2.33749e+00
4.000      1.92514e+00
5.000      1.50000e+00
6.000      1.10570e+00
7.000      7.71085e-01
8.000      5.08727e-01
9.000      3.17530e-01
10.000      1.87500e-01
11.000      1.04746e-01
12.000      5.53611e-02
13.000      2.76866e-02
14.000      1.31162e-02
15.000      5.93013e-03
16.000      2.68684e-03
17.000      1.56283e-03
18.000      1.86639e-03
19.000      3.83161e-03
20.000      8.74118e-03
21.000      1.94077e-02
22.000      4.10170e-02
23.000      8.22536e-02
24.000      1.56454e-01
25.000      2.82273e-01
26.000      4.83105e-01
27.000      7.84412e-01
28.000      1.20841e+00
29.000      1.76638e+00
30.000      2.45011e+00
31.000      3.22512e+00
32.000      4.02890e+00
33.000      4.77666e+00
34.000      5.37492e+00
35.000      5.74029e+00
36.000      5.81849e+00
37.000      5.59755e+00
38.000      5.11080e+00
39.000      4.42875e+00
40.000      3.64252e+00
41.000      2.84435e+00
42.000      2.11104e+00
43.000      1.49448e+00
44.000      1.02052e+00
45.000      6.94547e-01
46.000      5.10716e-01
47.000      4.61116e-01
48.000      5.42205e-01
49.000      7.56793e-01
50.000      1.11121e+00
51.000      1.60844e+00
52.000      2.23919e+00
53.000      2.97364e+00
54.000      3.75723e+00
55.000      4.51314e+00
56.000      5.15239e+00
57.000      5.59001e+00
58.000      5.76319e+00
59.000      5.64589e+00
60.000      5.25533e+00
61.000      4.64798e+00
62.000      3.90657e+00
63.000      3.12235e+00
64.000      2.37810e+00
65.000      1.73654e+00
66.000      1.23629e+00
67.000      8.94729e-01
68.000      7.14954e-01
69.000      6.93503e-01
70.000      8.25690e-01
71.000      1.10702e+00
72.000      1.53067e+00
73.000      2.08248e+00
74.000      2.73575e+00
75.000      3.44858e+00
76.000      4.16558e+00
77.000      4.82476e+00
78.000      5.36868e+00
79.000      5.75699e+00
80.000      5.97701e+00
81.000      6.04871e+00
82.000      6.02234e+00
83.000      5.96878e+00
84.000      5.96541e+00
85.000      6.08145e+00
86.000      6.36677e+00
87.000      6.84641e+00
88.000      7.52110e+00
89.000      8.37149e+00
90.000      9.36335e+00
91.000      1.04515e+01
92.000      1.15818e+01
93.000      1.26924e+01
94.000      1.37158e+01
95.000      1.45832e+01
96.000      1.52306e+01
97.000      1.56068e+01
98.000      1.56792e+01
99.000      1.54388e+01
100.000      1.49014e+01
101.000      1.41060e+01
102.000      1.31119e+01
103.000      1.19925e+01
104.000      1.08285e+01
105.000      9.70002e+00
106.000      8.67926e+00
107.000      7.82488e+00
108.000      7.17936e+00
109.000      6.76904e+00
110.000      6.60578e+00
111.000      6.68860e+00
112.000      7.00454e+00
113.000      7.52876e+00
114.000      8.22525e+00
115.000      9.04958e+00
116.000      9.95404e+00
117.000      1.08944e+01
118.000      1.18355e+01
119.000      1.27547e+01
120.000      1.36398e+01
121.000      1.44843e+01
122.000      1.52801e+01
123.000      1.60119e+01
124.000      1.66551e+01
125.000      1.71779e+01
126.000      1.75472e+01
127.000      1.77360e+01
128.000      1.77286e+01
129.000      1.75226e+01
130.000      1.71281e+01
131.000      1.65632e+01
132.000      1.58520e+01
133.000      1.50228e+01
134.000      1.41094e+01
135.000      1.31533e+01
136.000      1.22041e+01
137.000      1.13158e+01
138.000      1.05404e+01
139.000      9.91921e+00
140.000      9.47547e+00
141.000      9.21018e+00
142.000      9.10358e+00
143.000      9.12104e+00
144.000      9.22139e+00
145.000      9.36498e+00
146.000      9.51935e+00
147.000      9.66145e+00
148.000      9.77706e+00
149.000      9.85846e+00
150.000      9.90205e+00
151.000      9.90658e+00
152.000      9.87224e+00
153.000      9.80043e+00
154.000      9.69365e+00
155.000      9.55525e+00
156.000      9.38896e+00
157.000      9.19830e+00
158.000      8.98593e+00
159.000      8.75341e+00
160.000      8.50165e+00
161.000      8.23254e+00
162.000      7.95158e+00
163.000      7.67077e+00
164.000      7.41046e+00
165.000      7.19866e+00
166.000      7.06722e+00
167.000      7.04538e+00
168.000      7.15265e+00
169.000      7.39332e+00
170.000      7.75473e+00
171.000      8.20959e+00
172.000      8.72162e+00
173.000      9.25265e+00
174.000      9.76914e+00
175.000      1.02470e+01
176.000      1.06745e+01
177.000      1.10524e+01
178.000      1.13930e+01
179.000      1.17167e+01
180.000      1.20473e+01
181.000      1.24060e+01
182.000      1.28060e+01
183.000      1.32483e+01
184.000      1.37215e+01
185.000      1.42038e+01
186.000      1.46693e+01
187.000      1.50947e+01
188.000      1.54657e+01
189.000      1.57803e+01
190.000      1.60487e+01
191.000      1.62900e+01
192.000      1.65274e+01
193.000      1.67834e+01
194.000      1.70758e+01
195.000      1.74163e+01
196.000      1.78083e+01
197.000      1.82458e+01
198.000      1.87115e+01
199.000      1.91755e+01
200.000      1.95955e+01
201.000      1.99199e+01
202.000      2.00932e+01
203.000      2.00636e+01
204.000      1.97922e+01
205.000      1.92607e+01
206.000      1.84775e+01
207.000      1.74786e+01
208.000      1.63237e+01
209.000      1.50868e+01
210.000      1.38428e+01
211.000      1.26554e+01
212.000      1.15686e+01
213.000      1.06048e+01
214.000      9.77038e+00
215.000      9.06458e+00
216.000      8.48864e+00
217.000      8.05074e+00
218.000      7.76520e+00
219.000      7.64678e+00
220.000      7.70266e+00
221.000      7.92562e+00
222.000      8.29088e+00
223.000      8.75789e+00
224.000      9.27669e+00
225.000      9.79738e+00
226.000      1.02800e+01
227.000      1.07026e+01
228.000      1.10645e+01
229.000      1.13849e+01
230.000      1.16962e+01
231.000      1.20353e+01
232.000      1.24334e+01
233.000      1.29087e+01
234.000      1.34628e+01
235.000      1.40804e+01
236.000      1.47334e+01
237.000      1.53858e+01
238.000      1.60004e+01
239.000      1.65434e+01
240.000      1.69876e+01
241.000      1.73132e+01
242.000      1.75075e+01
243.000      1.75630e+01
244.000      1.74759e+01
245.000      1.72454e+01
246.000      1.68733e+01
247.000      1.63648e+01
248.000      1.57295e+01
249.000      1.49827e+01
250.000      1.41478e+01
251.000      1.32566e+01
252.000      1.23505e+01
253.000      1.14782e+01
254.000      1.06917e+01
255.000      1.00384e+01
256.000      9.55237e+00
257.000      9.24594e+00
258.000      9.10427e+00
259.000      9.08525e+00
260.000      9.12529e+00
261.000      9.15018e+00
262.000      9.08846e+00
263.000      8.88462e+00
264.000      8.50919e+00
265.000      7.96433e+00
266.000      7.28435e+00
267.000      6.53171e+00
268.000      5.78938e+00
269.000      5.15099e+00
270.000      4.70943e+00
271.000      4.54535e+00
272.000      4.71652e+00
273.000      5.24969e+00
274.000      6.13620e+00
275.000      7.33247e+00
276.000      8.76544e+00
277.000      1.03420e+01
278.000      1.19607e+01
279.000      1.35228e+01
280.000      1.49411e+01
281.000      1.61457e+01
282.000      1.70859e+01
283.000      1.77313e+01
284.000      1.80710e+01
285.000      1.81139e+01
286.000      1.78874e+01
287.000      1.74341e+01
288.000      1.68063e+01
289.000      1.60571e+01
290.000      1.52324e+01
291.000      1.43649e+01
292.000      1.34738e+01
293.000      1.25684e+01
294.000      1.16558e+01
295.000      1.07476e+01
296.000      9.86343e+00
297.000      9.02993e+00
298.000      8.27507e+00
299.000      7.62070e+00
300.000      7.07578e+00
301.000      6.63282e+00
302.000      6.26869e+00
303.000      5.94969e+00
304.000      5.63920e+00
305.000      5.30586e+00
306.000      4.93015e+00
307.000      4.50805e+00
308.000      4.05115e+00
309.000      3.58368e+00
310.000      3.13712e+00
311.000      2.74362e+00
312.000      2.42937e+00
313.000      2.20923e+00
314.000      2.08388e+00
315.000      2.04018e+00
316.000      2.05480e+00
317.000      2.10026e+00
318.000      2.15194e+00
319.000      2.19421e+00
320.000      2.22439e+00
321.000      2.25387e+00
322.000      2.30659e+00
323.000      2.41558e+00
324.000      2.61851e+00
325.000      2.95237e+00
326.000      3.44768e+00
327.000      4.12204e+00
328.000      4.97394e+00
329.000      5.97832e+00
330.000      7.08631e+00
331.000      8.23075e+00
332.000      9.33739e+00
333.000      1.03394e+01
334.000      1.11906e+01
335.000      1.18739e+01
336.000      1.24007e+01
337.000      1.28032e+01
338.000      1.31222e+01
339.000      1.33941e+01
340.000      1.36420e+01
341.000      1.38725e+01
342.000      1.40782e+01
343.000      1.42436e+01
344.000      1.43525e+01
345.000      1.43933e+01
346.000      1.43616e+01
347.000      1.42576e+01
348.000      1.40825e+01
349.000      1.38338e+01
350.000      1.35033e+01
351.000      1.30794e+01
352.000      1.25528e+01
353.000      1.19237e+01
354.000      1.12067e+01
355.000      1.04311e+01
356.000      9.63587e+00
357.000      8.86188e+00
358.000      8.14341e+00
359.000      7.50331e+00
360.000      6.95250e+00
361.000      6.49330e+00
362.000      6.12443e+00
363.000      5.84482e+00
364.000      5.65424e+00
365.000      5.55075e+00
366.000      5.52622e+00
367.000      5.56273e+00
368.000      5.63200e+00
369.000      5.69898e+00
370.000      5.72870e+00
371.000      5.69409e+00
372.000      5.58177e+00
373.000      5.39396e+00
374.000      5.14600e+00
375.000      4.86112e+00
376.000      4.56485e+00
377.000      4.28124e+00
378.000      4.03166e+00
379.000      3.83530e+00
380.000      3.70942e+00
381.000      3.66761e+00
382.000      3.71587e+00
383.000      3.84780e+00
384.000      4.04147e+00
385.000      4.26032e+00
386.000      4.45867e+00
387.000      4.59096e+00
388.000      4.62162e+00
389.000      4.53278e+00
390.000      4.32720e+00
391.000      4.02603e+00
392.000      3.66210e+00
393.000      3.27135e+00
394.000      2.88468e+00
395.000      2.52257e+00
396.000      2.19360e+00
397.000      1.89648e+00
398.000      1.62460e+00
399.000      1.37084e+00
400.000      1.13131e+00
401.000      9.06638e-01
402.000      7.01124e-01
403.000      5.20502e-01
404.000      3.69473e-01
405.000      2.50023e-01
406.000      1.60942e-01
407.000      9.83952e-02
408.000      5.70697e-02
409.000      3.13777e-02
410.000      1.63445e-02
411.000      8.06277e-03
412.000      3.76560e-03
413.000      1.66468e-03
414.000      6.96486e-04
415.000      2.75760e-04
416.000      1.03313e-04
417.000      3.66233e-05
418.000      1.22836e-05
419.000      3.89800e-06
420.000      1.17031e-06
421.000      3.32427e-07
422.000      8.93350e-08
423.000      2.27130e-08
424.000      5.46325e-09
425.000      1.24323e-09
426.000      2.67652e-10
427.000      5.45145e-11
428.000      1.05044e-11
429.000      1.91493e-12
430.000      3.30256e-13
431.000      5.38849e-14
432.000      8.31767e-15
433.000      1.21466e-15
434.000      1.67813e-16
435.000      2.19338e-17
436.000      2.71219e-18
437.000      3.17280e-19
438.000      3.51144e-20
439.000      3.67658e-21
440.000      3.64184e-22
441.000      3.41284e-23
442.000      3.02571e-24
443.000      2.53780e-25
444.000      2.01375e-26
445.000      1.51171e-27
446.000      1.07362e-28
447.000      7.21360e-30
448.000      4.58533e-31
449.000      2.75744e-32
450.000      1.56877e-33
451.000      8.44363e-35
452.000      4.29949e-36
453.000      2.07121e-37
454.000      9.43945e-39
455.000      4.06994e-40
456.000      1.66015e-41
457.000      6.40652e-43
458.000      2.33892e-44
459.000      8.07844e-46
460.000      2.63971e-47
461.000      8.16024e-49
462.000      2.38653e-50
463.000      6.60312e-52
464.000      1.72842e-53
465.000      4.28021e-55
466.000      1.00277e-56
467.000      2.22255e-58
468.000      4.66039e-60
469.000      9.24506e-62
470.000      1.73506e-63
471.000      3.08061e-65
472.000      5.17461e-67
473.000      8.22309e-69
474.000      1.23626e-70
475.000      1.75834e-72
476.000      2.36600e-74
477.000      3.01191e-76
478.000      3.62734e-78
479.000      4.13287e-80
480.000      4.45484e-82
481.000      4.54288e-84
482.000      4.38276e-86
483.000      4.00020e-88
484.000      3.45408e-90
485.000      2.82164e-92
486.000      2.18066e-94
487.000      1.59438e-96
488.000      1.10284e-98
489.000     7.21695e-101
490.000     4.46797e-103
491.000     2.61689e-105
492.000     1.45003e-107
493.000     7.60129e-110
494.000     3.76977e-112
495.000     1.76872e-114
496.000     7.85095e-117
497.000     3.29688e-119
498.000     1.30979e-121
499.000     4.92284e-124
500.000     1.75045e-126
