# Gaussian folded, width=10 cm^-1
# [cm^-1] arbitrary
0.000      3.00000e+00
1.000      2.91796e+00
2.000      2.68508e+00
3.000      2.33749e+00
4.000      1.92514e+00
5.000      1.50000e+00
6.000      1.10570e+00
7.000      7.71085e-01
8.000      5.08727e-01
9.000      3.17529e-01
10.000      1.87500e-01
11.000      1.04746e-01
12.000      5.53590e-02
13.000      2.76795e-02
14.000      1.30932e-02
15.000      5.85939e-03
16.000      2.48076e-03
17.000      9.93835e-04
18.000      3.77337e-04
19.000      1.37833e-04
20.000      5.51150e-05
21.000      4.36082e-05
22.000      8.94214e-05
23.000      2.38149e-04
24.000      6.27258e-04
25.000      1.57591e-03
26.000      3.76359e-03
27.000      8.54451e-03
28.000      1.84489e-02
29.000      3.79013e-02
30.000      7.41199e-02
31.000      1.38038e-01
32.000      2.44911e-01
33.000      4.14100e-01
34.000      6.67418e-01
35.000      1.02556e+00
36.000      1.50253e+00
37.000      2.09884e+00
38.000      2.79503e+00
39.000      3.54784e+00
40.000      4.29139e+00
41.000      4.94486e+00
42.000      5.42595e+00
43.000      5.66757e+00
44.000      5.63304e+00
45.000      5.32524e+00
46.000      4.78647e+00
47.000      4.08889e+00
48.000      3.31858e+00
49.000      2.55807e+00
50.000      1.87220e+00
51.000      1.30061e+00
52.000      8.57419e-01
53.000      5.36328e-01
54.000      3.18386e-01
55.000      1.79706e-01
56.000      9.73403e-02
57.000      5.27635e-02
58.000      3.33139e-02
59.000      3.23919e-02
60.000      4.91872e-02
61.000      8.84124e-02
62.000      1.60113e-01
63.000      2.79242e-01
64.000      4.64453e-01
65.000      7.35556e-01
66.000      1.10936e+00
67.000      1.59422e+00
68.000      2.18426e+00
69.000      2.85494e+00
70.000      3.56170e+00
71.000      4.24311e+00
72.000      4.82871e+00
73.000      5.25047e+00
74.000      5.45549e+00
75.000      5.41663e+00
76.000      5.13850e+00
77.000      4.65678e+00
78.000      4.03134e+00
79.000      3.33481e+00
80.000      2.63981e+00
81.000      2.00815e+00
82.000      1.48402e+00
83.000      1.09219e+00
84.000      8.40074e-01
85.000      7.22157e-01
86.000      7.24640e-01
87.000      8.29268e-01
88.000      1.01593e+00
89.000      1.26448e+00
90.000      1.55633e+00
91.000      1.87612e+00
92.000      2.21297e+00
93.000      2.56064e+00
94.000      2.91576e+00
95.000      3.27423e+00
96.000      3.62662e+00
97.000      3.95468e+00
98.000      4.23096e+00
99.000      4.42286e+00
100.000      4.50094e+00
101.000      4.44934e+00
102.000      4.27491e+00
103.000      4.01166e+00
104.000      3.71850e+00
105.000      3.47011e+00
106.000      3.34321e+00
107.000      3.40132e+00
108.000      3.68190e+00
109.000      4.18849e+00
110.000      4.88958e+00
111.000      5.72462e+00
112.000      6.61586e+00
113.000      7.48394e+00
114.000      8.26331e+00
115.000      8.91375e+00
116.000      9.42437e+00
117.000      9.80899e+00
118.000      1.00945e+01
119.000      1.03067e+01
120.000      1.04594e+01
121.000      1.05504e+01
122.000      1.05661e+01
123.000      1.04910e+01
124.000      1.03178e+01
125.000      1.00541e+01
126.000      9.72180e+00
127.000      9.35154e+00
128.000      8.97463e+00
129.000      8.61498e+00
130.000      8.28440e+00
131.000      7.98178e+00
132.000      7.69626e+00
133.000      7.41331e+00
134.000      7.12187e+00
135.000      6.82068e+00
136.000      6.52161e+00
137.000      6.24874e+00
138.000      6.03309e+00
139.000      5.90435e+00
140.000      5.88215e+00
141.000      5.96953e+00
142.000      6.15085e+00
143.000      6.39502e+00
144.000      6.66304e+00
145.000      6.91788e+00
146.000      7.13366e+00
147.000      7.30144e+00
148.000      7.43020e+00
149.000      7.54281e+00
150.000      7.66877e+00
151.000      7.83577e+00
152.000      8.06303e+00
153.000      8.35787e+00
154.000      8.71641e+00
155.000      9.12749e+00
156.000      9.57778e+00
157.000      1.00559e+01
158.000      1.05537e+01
159.000      1.10636e+01
160.000      1.15746e+01
161.000      1.20681e+01
162.000      1.25176e+01
163.000      1.28918e+01
164.000      1.31625e+01
165.000      1.33123e+01
166.000      1.33392e+01
167.000      1.32571e+01
168.000      1.30897e+01
169.000      1.28628e+01
170.000      1.25961e+01
171.000      1.22980e+01
172.000      1.19655e+01
173.000      1.15868e+01
174.000      1.11457e+01
175.000      1.06269e+01
176.000      1.00197e+01
177.000      9.32127e+00
178.000      8.53954e+00
179.000      7.69454e+00
180.000      6.81867e+00
181.000      5.95459e+00
182.000      5.15027e+00
183.000      4.45191e+00
184.000      3.89618e+00
185.000      3.50401e+00
186.000      3.27766e+00
187.000      3.20215e+00
188.000      3.25039e+00
189.000      3.39072e+00
190.000      3.59445e+00
191.000      3.84159e+00
192.000      4.12305e+00
193.000      4.43912e+00
194.000      4.79476e+00
195.000      5.19349e+00
196.000      5.63183e+00
197.000      6.09623e+00
198.000      6.56324e+00
199.000      7.00312e+00
200.000      7.38567e+00
201.000      7.68671e+00
202.000      7.89338e+00
203.000      8.00650e+00
204.000      8.03922e+00
205.000      8.01213e+00
206.000      7.94624e+00
207.000      7.85629e+00
208.000      7.74653e+00
209.000      7.61059e+00
210.000      7.43532e+00
211.000      7.20726e+00
212.000      6.91947e+00
213.000      6.57625e+00
214.000      6.19439e+00
215.000      5.80031e+00
216.000      5.42428e+00
217.000      5.09331e+00
218.000      4.82497e+00
219.000      4.62342e+00
220.000      4.47870e+00
221.000      4.36879e+00
222.000      4.26392e+00
223.000      4.13224e+00
224.000      3.94588e+00
225.000      3.68649e+00
226.000      3.34912e+00
227.000      2.94350e+00
228.000      2.49218e+00
229.000      2.02574e+00
230.000      1.57640e+00
231.000      1.17181e+00
232.000      8.30563e-01
233.000      5.60514e-01
234.000      3.59745e-01
235.000      2.19379e-01
236.000      1.27017e-01
237.000      6.97807e-02
238.000      3.63583e-02
239.000      1.79596e-02
240.000      8.40763e-03
241.000      3.72926e-03
242.000      1.56694e-03
243.000      6.23566e-04
244.000      2.34992e-04
245.000      8.38518e-05
246.000      2.83280e-05
247.000      9.06003e-06
248.000      2.74322e-06
249.000      7.87370e-07
250.000      2.19084e-07
251.000      7.96874e-08
252.000      1.13755e-07
253.000      3.85763e-07
254.000      1.38006e-06
255.000      4.70386e-06
256.000      1.51750e-05
257.000      4.63189e-05
258.000      1.33763e-04
259.000      3.65496e-04
260.000      9.44964e-04
261.000      2.31188e-03
262.000      5.35275e-03
263.000      1.17304e-02
264.000      2.43371e-02
265.000      4.78159e-02
266.000      8.90052e-02
267.000      1.57061e-01
268.000      2.62977e-01
269.000      4.18318e-01
270.000      6.33269e-01
271.000      9.14507e-01
272.000      1.26374e+00
273.000      1.67768e+00
274.000      2.14975e+00
275.000      2.67257e+00
276.000      3.23959e+00
277.000      3.84405e+00
278.000      4.47451e+00
279.000      5.10867e+00
280.000      5.70913e+00
281.000      6.22544e+00
282.000      6.60488e+00
283.000      6.81053e+00
284.000      6.84093e+00
285.000      6.74347e+00
286.000      6.61448e+00
287.000      6.58341e+00
288.000      6.78416e+00
289.000      7.32118e+00
290.000      8.24052e+00
291.000      9.51403e+00
292.000      1.10414e+01
293.000      1.26688e+01
294.000      1.42187e+01
295.000      1.55226e+01
296.000      1.64477e+01
297.000      1.69150e+01
298.000      1.69058e+01
299.000      1.64601e+01
300.000      1.56695e+01
301.000      1.46667e+01
302.000      1.36100e+01
303.000      1.26621e+01
304.000      1.19644e+01
305.000      1.16088e+01
306.000      1.16160e+01
307.000      1.19276e+01
308.000      1.24167e+01
309.000      1.29176e+01
310.000      1.32663e+01
311.000      1.33421e+01
312.000      1.30990e+01
313.000      1.25785e+01
314.000      1.19018e+01
315.000      1.12428e+01
316.000      1.07909e+01
317.000      1.07102e+01
318.000      1.11049e+01
319.000      1.19984e+01
320.000      1.33304e+01
321.000      1.49714e+01
322.000      1.67530e+01
323.000      1.85027e+01
324.000      2.00784e+01
325.000      2.13902e+01
326.000      2.24086e+01
327.000      2.31579e+01
328.000      2.36978e+01
329.000      2.41014e+01
330.000      2.44339e+01
331.000      2.47368e+01
332.000      2.50213e+01
333.000      2.52703e+01
334.000      2.54466e+01
335.000      2.55065e+01
336.000      2.54126e+01
337.000      2.51447e+01
338.000      2.47056e+01
339.000      2.41226e+01
340.000      2.34443e+01
341.000      2.27339e+01
342.000      2.20622e+01
343.000      2.14975e+01
344.000      2.10969e+01
345.000      2.08977e+01
346.000      2.09114e+01
347.000      2.11224e+01
348.000      2.14913e+01
349.000      2.19638e+01
350.000      2.24815e+01
351.000      2.29935e+01
352.000      2.34647e+01
353.000      2.38793e+01
354.000      2.42385e+01
355.000      2.45547e+01
356.000      2.48422e+01
357.000      2.51090e+01
358.000      2.53512e+01
359.000      2.55495e+01
360.000      2.56712e+01
361.000      2.56740e+01
362.000      2.55130e+01
363.000      2.51483e+01
364.000      2.45518e+01
365.000      2.37133e+01
366.000      2.26423e+01
367.000      2.13677e+01
368.000      1.99337e+01
369.000      1.83940e+01
370.000      1.68061e+01
371.000      1.52276e+01
372.000      1.37140e+01
373.000      1.23181e+01
374.000      1.10896e+01
375.000      1.00716e+01
376.000      9.29735e+00
377.000      8.78585e+00
378.000      8.54081e+00
379.000      8.55417e+00
380.000      8.81362e+00
381.000      9.31130e+00
382.000      1.00489e+01
383.000      1.10357e+01
384.000      1.22782e+01
385.000      1.37672e+01
386.000      1.54667e+01
387.000      1.73131e+01
388.000      1.92263e+01
389.000      2.11265e+01
390.000      2.29485e+01
391.000      2.46442e+01
392.000      2.61693e+01
393.000      2.74607e+01
394.000      2.84188e+01
395.000      2.89070e+01
396.000      2.87743e+01
397.000      2.78973e+01
398.000      2.62248e+01
399.000      2.38085e+01
400.000      2.08068e+01
401.000      1.74585e+01
402.000      1.40369e+01
403.000      1.07979e+01
404.000      7.93800e+00
405.000      5.57244e+00
406.000      3.73418e+00
407.000      2.39038e+00
408.000      1.46712e+00
409.000      8.74485e-01
410.000      5.25908e-01
411.000      3.49646e-01
412.000      2.92550e-01
413.000      3.18330e-01
414.000      4.02893e-01
415.000      5.29180e-01
416.000      6.83314e-01
417.000      8.53107e-01
418.000      1.02904e+00
419.000      1.20690e+00
420.000      1.39044e+00
421.000      1.59224e+00
422.000      1.83127e+00
423.000      2.12702e+00
424.000      2.49128e+00
425.000      2.92024e+00
426.000      3.38968e+00
427.000      3.85556e+00
428.000      4.26050e+00
429.000      4.54503e+00
430.000      4.66061e+00
431.000      4.58079e+00
432.000      4.30737e+00
433.000      3.86996e+00
434.000      3.31926e+00
435.000      2.71619e+00
436.000      2.12018e+00
437.000      1.57960e+00
438.000      1.12641e+00
439.000      7.75532e-01
440.000      5.27911e-01
441.000      3.75413e-01
442.000      3.05630e-01
443.000      3.05151e-01
444.000      3.60753e-01
445.000      4.58880e-01
446.000      5.84366e-01
447.000      7.19617e-01
448.000      8.45155e-01
449.000      9.41792e-01
450.000      9.93912e-01
451.000      9.92710e-01
452.000      9.38154e-01
453.000      8.38813e-01
454.000      7.09547e-01
455.000      5.67829e-01
456.000      4.29905e-01
457.000      3.07926e-01
458.000      2.08659e-01
459.000      1.33766e-01
460.000      8.11281e-02
461.000      4.65495e-02
462.000      2.52683e-02
463.000      1.29764e-02
464.000      6.30452e-03
465.000      2.89778e-03
466.000      1.26008e-03
467.000      5.18379e-04
468.000      2.01750e-04
469.000      7.42846e-05
470.000      2.58762e-05
471.000      8.52748e-06
472.000      2.65863e-06
473.000      7.84175e-07
474.000      2.18819e-07
475.000      5.77664e-08
476.000      1.44272e-08
477.000      3.40886e-09
478.000      7.61994e-10
479.000      1.61143e-10
480.000      3.22396e-11
481.000      6.10219e-12
482.000      1.09270e-12
483.000      1.85110e-13
484.000      2.96674e-14
485.000      4.49826e-15
486.000      6.45251e-16
487.000      8.75649e-17
488.000      1.12421e-17
489.000      1.36548e-18
490.000      1.56906e-19
491.000      1.70573e-20
492.000      1.75429e-21
493.000      1.70690e-22
494.000      1.57120e-23
495.000      1.36828e-24
496.000      1.12729e-25
497.000      8.78641e-27
498.000      6.47898e-28
499.000      4.51980e-29
500.000      2.98297e-30
