# Gaussian folded, width=10 cm^-1
# [cm^-1] arbitrary
0.000      3.00000e+00
1.000      2.91796e+00
2.000      2.68508e+00
3.000      2.33749e+00
4.000      1.92514e+00
5.000      1.50000e+00
6.000      1.10570e+00
7.000      7.71085e-01
8.000      5.08727e-01
9.000      3.17530e-01
10.000      1.87500e-01
11.000      1.04746e-01
12.000      5.53611e-02
13.000      2.76867e-02
14.000      1.31164e-02
15.000      5.93055e-03
16.000      2.68791e-03
17.000      1.56533e-03
18.000      1.87175e-03
19.000      3.84210e-03
20.000      8.75949e-03
21.000      1.94349e-02
22.000      4.10469e-02
23.000      8.22609e-02
24.000      1.56372e-01
25.000      2.81963e-01
26.000      4.82314e-01
27.000      7.82737e-01
28.000      1.20528e+00
29.000      1.76111e+00
30.000      2.44202e+00
31.000      3.21370e+00
32.000      4.01412e+00
33.000      4.75915e+00
34.000      5.35609e+00
35.000      5.72224e+00
36.000      5.80365e+00
37.000      5.58817e+00
38.000      5.10840e+00
39.000      4.43378e+00
40.000      3.65427e+00
41.000      2.86130e+00
42.000      2.13139e+00
43.000      1.51685e+00
44.000      1.04447e+00
45.000      7.20816e-01
46.000      5.41009e-01
47.000      4.97439e-01
48.000      5.85781e-01
49.000      8.06757e-01
50.000      1.16346e+00
51.000      1.65514e+00
52.000      2.26943e+00
53.000      2.97551e+00
54.000      3.72101e+00
55.000      4.43481e+00
56.000      5.03619e+00
57.000      5.44894e+00
58.000      5.61686e+00
59.000      5.51626e+00
60.000      5.16164e+00
61.000      4.60263e+00
62.000      3.91333e+00
63.000      3.17736e+00
64.000      2.47287e+00
65.000      1.86153e+00
66.000      1.38329e+00
67.000      1.05689e+00
68.000      8.84354e-01
69.000      8.57124e-01
70.000      9.61888e-01
71.000      1.18473e+00
72.000      1.51313e+00
73.000      1.93572e+00
74.000      2.44004e+00
75.000      3.00898e+00
76.000      3.61723e+00
77.000      4.22984e+00
78.000      4.80469e+00
79.000      5.29995e+00
80.000      5.68540e+00
81.000      5.95415e+00
82.000      6.13020e+00
83.000      6.26780e+00
84.000      6.44101e+00
85.000      6.72603e+00
86.000      7.18117e+00
87.000      7.83122e+00
88.000      8.66093e+00
89.000      9.61961e+00
90.000      1.06347e+01
91.000      1.16294e+01
92.000      1.25387e+01
93.000      1.33183e+01
94.000      1.39453e+01
95.000      1.44120e+01
96.000      1.47158e+01
97.000      1.48510e+01
98.000      1.48057e+01
99.000      1.45649e+01
100.000      1.41181e+01
101.000      1.34676e+01
102.000      1.26350e+01
103.000      1.16625e+01
104.000      1.06092e+01
105.000      9.54424e+00
106.000      8.53802e+00
107.000      7.65529e+00
108.000      6.94948e+00
109.000      6.45949e+00
110.000      6.20829e+00
111.000      6.20283e+00
112.000      6.43547e+00
113.000      6.88686e+00
114.000      7.52998e+00
115.000      8.33463e+00
116.000      9.27065e+00
117.000      1.03089e+01
118.000      1.14193e+01
119.000      1.25675e+01
120.000      1.37118e+01
121.000      1.48026e+01
122.000      1.57859e+01
123.000      1.66099e+01
124.000      1.72326e+01
125.000      1.76278e+01
126.000      1.77887e+01
127.000      1.77270e+01
128.000      1.74699e+01
129.000      1.70552e+01
130.000      1.65256e+01
131.000      1.59235e+01
132.000      1.52861e+01
133.000      1.46422e+01
134.000      1.40106e+01
135.000      1.34026e+01
136.000      1.28249e+01
137.000      1.22853e+01
138.000      1.17953e+01
139.000      1.13711e+01
140.000      1.10302e+01
141.000      1.07852e+01
142.000      1.06371e+01
143.000      1.05716e+01
144.000      1.05590e+01
145.000      1.05594e+01
146.000      1.05321e+01
147.000      1.04452e+01
148.000      1.02836e+01
149.000      1.00517e+01
150.000      9.77078e+00
151.000      9.47135e+00
152.000      9.18395e+00
153.000      8.93053e+00
154.000      8.71933e+00
155.000      8.54414e+00
156.000      8.38789e+00
157.000      8.22916e+00
158.000      8.04967e+00
159.000      7.84093e+00
160.000      7.60806e+00
161.000      7.36994e+00
162.000      7.15541e+00
163.000      6.99652e+00
164.000      6.92079e+00
165.000      6.94479e+00
166.000      7.07106e+00
167.000      7.28923e+00
168.000      7.58053e+00
169.000      7.92375e+00
170.000      8.30032e+00
171.000      8.69680e+00
172.000      9.10469e+00
173.000      9.51855e+00
174.000      9.93413e+00
175.000      1.03477e+01
176.000      1.07567e+01
177.000      1.11603e+01
178.000      1.15592e+01
179.000      1.19538e+01
180.000      1.23414e+01
181.000      1.27145e+01
182.000      1.30610e+01
183.000      1.33683e+01
184.000      1.36286e+01
185.000      1.38433e+01
186.000      1.40253e+01
187.000      1.41959e+01
188.000      1.43792e+01
189.000      1.45958e+01
190.000      1.48582e+01
191.000      1.51700e+01
192.000      1.55280e+01
193.000      1.59259e+01
194.000      1.63561e+01
195.000      1.68111e+01
196.000      1.72814e+01
197.000      1.77544e+01
198.000      1.82128e+01
199.000      1.86352e+01
200.000      1.89969e+01
201.000      1.92708e+01
202.000      1.94282e+01
203.000      1.94393e+01
204.000      1.92747e+01
205.000      1.89077e+01
206.000      1.83197e+01
207.000      1.75049e+01
208.000      1.64769e+01
209.000      1.52712e+01
210.000      1.39461e+01
211.000      1.25788e+01
212.000      1.12577e+01
213.000      1.00714e+01
214.000      9.09738e+00
215.000      8.39046e+00
216.000      7.97527e+00
217.000      7.84334e+00
218.000      7.95630e+00
219.000      8.25445e+00
220.000      8.66880e+00
221.000      9.13377e+00
222.000      9.59748e+00
223.000      1.00277e+01
224.000      1.04124e+01
225.000      1.07565e+01
226.000      1.10751e+01
227.000      1.13869e+01
228.000      1.17081e+01
229.000      1.20493e+01
230.000      1.24148e+01
231.000      1.28044e+01
232.000      1.32161e+01
233.000      1.36492e+01
234.000      1.41054e+01
235.000      1.45866e+01
236.000      1.50912e+01
237.000      1.56090e+01
238.000      1.61179e+01
239.000      1.65845e+01
240.000      1.69691e+01
241.000      1.72349e+01
242.000      1.73564e+01
243.000      1.73258e+01
244.000      1.71535e+01
245.000      1.68629e+01
246.000      1.64823e+01
247.000      1.60373e+01
248.000      1.55454e+01
249.000      1.50158e+01
250.000      1.44527e+01
251.000      1.38589e+01
252.000      1.32394e+01
253.000      1.26013e+01
254.000      1.19516e+01
255.000      1.12939e+01
256.000      1.06258e+01
257.000      9.93930e+00
258.000      9.22389e+00
259.000      8.47191e+00
260.000      7.68452e+00
261.000      6.87603e+00
262.000      6.07509e+00
263.000      5.32230e+00
264.000      4.66509e+00
265.000      4.15153e+00
266.000      3.82480e+00
267.000      3.71957e+00
268.000      3.86039e+00
269.000      4.26108e+00
270.000      4.92405e+00
271.000      5.83869e+00
272.000      6.97878e+00
273.000      8.30031e+00
274.000      9.74114e+00
275.000      1.12242e+01
276.000      1.26650e+01
277.000      1.39817e+01
278.000      1.51074e+01
279.000      1.59988e+01
280.000      1.66407e+01
281.000      1.70438e+01
282.000      1.72360e+01
283.000      1.72516e+01
284.000      1.71213e+01
285.000      1.68668e+01
286.000      1.65015e+01
287.000      1.60349e+01
288.000      1.54794e+01
289.000      1.48536e+01
290.000      1.41822e+01
291.000      1.34915e+01
292.000      1.28038e+01
293.000      1.21317e+01
294.000      1.14767e+01
295.000      1.08310e+01
296.000      1.01829e+01
297.000      9.52204e+00
298.000      8.84493e+00
299.000      8.15668e+00
300.000      7.47040e+00
301.000      6.80392e+00
302.000      6.17545e+00
303.000      5.59968e+00
304.000      5.08558e+00
305.000      4.63652e+00
306.000      4.25197e+00
307.000      3.92972e+00
308.000      3.66708e+00
309.000      3.46069e+00
310.000      3.30517e+00
311.000      3.19208e+00
312.000      3.11064e+00
313.000      3.05049e+00
314.000      3.00569e+00
315.000      2.97777e+00
316.000      2.97588e+00
317.000      3.01322e+00
318.000      3.10078e+00
319.000      3.24080e+00
320.000      3.42285e+00
321.000      3.62469e+00
322.000      3.81826e+00
323.000      3.97936e+00
324.000      4.09804e+00
325.000      4.18613e+00
326.000      4.27896e+00
327.000      4.42986e+00
328.000      4.69839e+00
329.000      5.13545e+00
330.000      5.76947e+00
331.000      6.59797e+00
332.000      7.58671e+00
333.000      8.67650e+00
334.000      9.79548e+00
335.000      1.08731e+01
336.000      1.18528e+01
337.000      1.26996e+01
338.000      1.34029e+01
339.000      1.39735e+01
340.000      1.44363e+01
341.000      1.48203e+01
342.000      1.51489e+01
343.000      1.54309e+01
344.000      1.56566e+01
345.000      1.57977e+01
346.000      1.58131e+01
347.000      1.56578e+01
348.000      1.52950e+01
349.000      1.47056e+01
350.000      1.38964e+01
351.000      1.29015e+01
352.000      1.17798e+01
353.000      1.06075e+01
354.000      9.46757e+00
355.000      8.43842e+00
356.000      7.58254e+00
357.000      6.93817e+00
358.000      6.51505e+00
359.000      6.29532e+00
360.000      6.23909e+00
361.000      6.29319e+00
362.000      6.40050e+00
363.000      6.50783e+00
364.000      6.57132e+00
365.000      6.55934e+00
366.000      6.45368e+00
367.000      6.24967e+00
368.000      5.95558e+00
369.000      5.59098e+00
370.000      5.18416e+00
371.000      4.76835e+00
372.000      4.37768e+00
373.000      4.04314e+00
374.000      3.78943e+00
375.000      3.63253e+00
376.000      3.57818e+00
377.000      3.62114e+00
378.000      3.74519e+00
379.000      3.92417e+00
380.000      4.12430e+00
381.000      4.30786e+00
382.000      4.43824e+00
383.000      4.48571e+00
384.000      4.43296e+00
385.000      4.27909e+00
386.000      4.04058e+00
387.000      3.74828e+00
388.000      3.44057e+00
389.000      3.15424e+00
390.000      2.91567e+00
391.000      2.73530e+00
392.000      2.60705e+00
393.000      2.51288e+00
394.000      2.43050e+00
395.000      2.34120e+00
396.000      2.23501e+00
397.000      2.11146e+00
398.000      1.97652e+00
399.000      1.83757e+00
400.000      1.69899e+00
401.000      1.56022e+00
402.000      1.41688e+00
403.000      1.26397e+00
404.000      1.09921e+00
405.000      9.25142e-01
406.000      7.48924e-01
407.000      5.80323e-01
408.000      4.28894e-01
409.000      3.01555e-01
410.000      2.01348e-01
411.000      1.27514e-01
412.000      7.65311e-02
413.000      4.35053e-02
414.000      2.34156e-02
415.000      1.19294e-02
416.000      5.75179e-03
417.000      2.62429e-03
418.000      1.13294e-03
419.000      4.62775e-04
420.000      1.78848e-04
421.000      6.53936e-05
422.000      2.26214e-05
423.000      7.40343e-06
424.000      2.29230e-06
425.000      6.71476e-07
426.000      1.86085e-07
427.000      4.87878e-08
428.000      1.21013e-08
429.000      2.83968e-09
430.000      6.30413e-10
431.000      1.32403e-10
432.000      2.63082e-11
433.000      4.94540e-12
434.000      8.79488e-13
435.000      1.47971e-13
436.000      2.35526e-14
437.000      3.54666e-15
438.000      5.05264e-16
439.000      6.80980e-17
440.000      8.68296e-18
441.000      1.04742e-18
442.000      1.19533e-19
443.000      1.29055e-20
444.000      1.31819e-21
445.000      1.27380e-22
446.000      1.16450e-23
447.000      1.00716e-24
448.000      8.24085e-26
449.000      6.37917e-27
450.000      4.67169e-28
451.000      3.23669e-29
452.000      2.12152e-30
453.000      1.31556e-31
454.000      7.71773e-33
455.000      4.28339e-34
456.000      2.24907e-35
457.000      1.11721e-36
458.000      5.25033e-38
459.000      2.33429e-39
460.000      9.81839e-41
461.000      3.90700e-42
462.000      1.47084e-43
463.000      5.23846e-45
464.000      1.76506e-46
465.000      5.62644e-48
466.000      1.69678e-49
467.000      4.84099e-51
468.000      1.30665e-52
469.000      3.33661e-54
470.000      8.06059e-56
471.000      1.84224e-57
472.000      3.98330e-59
473.000      8.14813e-61
474.000      1.57685e-62
475.000      2.88695e-64
476.000      5.00043e-66
477.000      8.19393e-68
478.000      1.27027e-69
479.000      1.86301e-71
480.000      2.58495e-73
481.000      3.39319e-75
482.000      4.21387e-77
483.000      4.95076e-79
484.000      5.50276e-81
485.000      5.78637e-83
486.000      5.75638e-85
487.000      5.41765e-87
488.000      4.82380e-89
489.000      4.06336e-91
490.000      3.23817e-93
491.000      2.44135e-95
492.000      1.74132e-97
493.000      1.17502e-99
494.000     7.50120e-102
495.000     4.53036e-104
496.000     2.58852e-106
497.000     1.39923e-108
498.000     7.15556e-111
499.000     3.46191e-113
500.000     1.58455e-115
