# Gaussian folded, width=10 cm^-1
# [cm^-1] arbitrary
0.000      3.00000e+00
1.000      2.91796e+00
2.000      2.68508e+00
3.000      2.33749e+00
4.000      1.92514e+00
5.000      1.50000e+00
6.000      1.10570e+00
7.000      7.71085e-01
8.000      5.08727e-01
9.000      3.17529e-01
10.000      1.87500e-01
11.000      1.04746e-01
12.000      5.53590e-02
13.000      2.76796e-02
14.000      1.30934e-02
15.000      5.85994e-03
16.000      2.48271e-03
17.000      1.00041e-03
18.000      3.98355e-04
19.000      2.01424e-04
20.000      2.37331e-04
21.000      5.38137e-04
22.000      1.36067e-03
23.000      3.33352e-03
24.000      7.76640e-03
25.000      1.71722e-02
26.000      3.60344e-02
27.000      7.17800e-02
28.000      1.35771e-01
29.000      2.43931e-01
30.000      4.16406e-01
31.000      6.75619e-01
32.000      1.04223e+00
33.000      1.52914e+00
34.000      2.13443e+00
35.000      2.83531e+00
36.000      3.58524e+00
37.000      4.31650e+00
38.000      4.94906e+00
39.000      5.40441e+00
40.000      5.62140e+00
41.000      5.56952e+00
42.000      5.25596e+00
43.000      4.72396e+00
44.000      4.04312e+00
45.000      3.29459e+00
46.000      2.55545e+00
47.000      1.88640e+00
48.000      1.32528e+00
49.000      8.86778e-01
50.000      5.67136e-01
51.000      3.51265e-01
52.000      2.20163e-01
53.000      1.56935e-01
54.000      1.50714e-01
55.000      1.98426e-01
56.000      3.04664e-01
57.000      4.79929e-01
58.000      7.37468e-01
59.000      1.08893e+00
60.000      1.53935e+00
61.000      2.08228e+00
62.000      2.69632e+00
63.000      3.34409e+00
64.000      3.97471e+00
65.000      4.52965e+00
66.000      4.95131e+00
67.000      5.19249e+00
68.000      5.22481e+00
69.000      5.04400e+00
70.000      4.67097e+00
71.000      4.14819e+00
72.000      3.53256e+00
73.000      2.88619e+00
74.000      2.26744e+00
75.000      1.72413e+00
76.000      1.28986e+00
77.000      9.83844e-01
78.000      8.13285e-01
79.000      7.76888e-01
80.000      8.68202e-01
81.000      1.07776e+00
82.000      1.39374e+00
83.000      1.80129e+00
84.000      2.28124e+00
85.000      2.80872e+00
86.000      3.35261e+00
87.000      3.87627e+00
88.000      4.34026e+00
89.000      4.70714e+00
90.000      4.94802e+00
91.000      5.04972e+00
92.000      5.02064e+00
93.000      4.89357e+00
94.000      4.72363e+00
95.000      4.58088e+00
96.000      4.53856e+00
97.000      4.65926e+00
98.000      4.98240e+00
99.000      5.51592e+00
100.000      6.23457e+00
101.000      7.08483e+00
102.000      7.99528e+00
103.000      8.88952e+00
104.000      9.69887e+00
105.000      1.03723e+01
106.000      1.08818e+01
107.000      1.12232e+01
108.000      1.14127e+01
109.000      1.14788e+01
110.000      1.14543e+01
111.000      1.13668e+01
112.000      1.12324e+01
113.000      1.10538e+01
114.000      1.08225e+01
115.000      1.05257e+01
116.000      1.01545e+01
117.000      9.71127e+00
118.000      9.21242e+00
119.000      8.68648e+00
120.000      8.16785e+00
121.000      7.68934e+00
122.000      7.27646e+00
123.000      6.94548e+00
124.000      6.70532e+00
125.000      6.56132e+00
126.000      6.51870e+00
127.000      6.58377e+00
128.000      6.76254e+00
129.000      7.05753e+00
130.000      7.46430e+00
131.000      7.96895e+00
132.000      8.54748e+00
133.000      9.16700e+00
134.000      9.78868e+00
135.000      1.03721e+01
136.000      1.08804e+01
137.000      1.12858e+01
138.000      1.15741e+01
139.000      1.17468e+01
140.000      1.18206e+01
141.000      1.18226e+01
142.000      1.17842e+01
143.000      1.17336e+01
144.000      1.16903e+01
145.000      1.16626e+01
146.000      1.16482e+01
147.000      1.16373e+01
148.000      1.16163e+01
149.000      1.15715e+01
150.000      1.14921e+01
151.000      1.13723e+01
152.000      1.12126e+01
153.000      1.10207e+01
154.000      1.08103e+01
155.000      1.05983e+01
156.000      1.04011e+01
157.000      1.02301e+01
158.000      1.00884e+01
159.000      9.97035e+00
160.000      9.86344e+00
161.000      9.75181e+00
162.000      9.62021e+00
163.000      9.45673e+00
164.000      9.25408e+00
165.000      9.00953e+00
166.000      8.72465e+00
167.000      8.40535e+00
168.000      8.06254e+00
169.000      7.71283e+00
170.000      7.37815e+00
171.000      7.08348e+00
172.000      6.85265e+00
173.000      6.70324e+00
174.000      6.64217e+00
175.000      6.66415e+00
176.000      6.75373e+00
177.000      6.89055e+00
178.000      7.05592e+00
179.000      7.23777e+00
180.000      7.43197e+00
181.000      7.63938e+00
182.000      7.86004e+00
183.000      8.08749e+00
184.000      8.30604e+00
185.000      8.49278e+00
186.000      8.62349e+00
187.000      8.68016e+00
188.000      8.65689e+00
189.000      8.56181e+00
190.000      8.41478e+00
191.000      8.24203e+00
192.000      8.07036e+00
193.000      7.92264e+00
194.000      7.81577e+00
195.000      7.76051e+00
196.000      7.76196e+00
197.000      7.81963e+00
198.000      7.92652e+00
199.000      8.06794e+00
200.000      8.22118e+00
201.000      8.35764e+00
202.000      8.44763e+00
203.000      8.46724e+00
204.000      8.40520e+00
205.000      8.26677e+00
206.000      8.07303e+00
207.000      7.85492e+00
208.000      7.64390e+00
209.000      7.46255e+00
210.000      7.31857e+00
211.000      7.20438e+00
212.000      7.10258e+00
213.000      6.99490e+00
214.000      6.87115e+00
215.000      6.73484e+00
216.000      6.60357e+00
217.000      6.50437e+00
218.000      6.46623e+00
219.000      6.51265e+00
220.000      6.65670e+00
221.000      6.89935e+00
222.000      7.23060e+00
223.000      7.63189e+00
224.000      8.07830e+00
225.000      8.54020e+00
226.000      8.98474e+00
227.000      9.37818e+00
228.000      9.68975e+00
229.000      9.89645e+00
230.000      9.98756e+00
231.000      9.96682e+00
232.000      9.85119e+00
233.000      9.66624e+00
234.000      9.43975e+00
235.000      9.19588e+00
236.000      8.95185e+00
237.000      8.71782e+00
238.000      8.49923e+00
239.000      8.29954e+00
240.000      8.12167e+00
241.000      7.96750e+00
242.000      7.83620e+00
243.000      7.72299e+00
244.000      7.61989e+00
245.000      7.51881e+00
246.000      7.41570e+00
247.000      7.31372e+00
248.000      7.22358e+00
249.000      7.16035e+00
250.000      7.13777e+00
251.000      7.16233e+00
252.000      7.22928e+00
253.000      7.32208e+00
254.000      7.41509e+00
255.000      7.47822e+00
256.000      7.48181e+00
257.000      7.40065e+00
258.000      7.21690e+00
259.000      6.92232e+00
260.000      6.52050e+00
261.000      6.02873e+00
262.000      5.47882e+00
263.000      4.91551e+00
264.000      4.39146e+00
265.000      3.95893e+00
266.000      3.65944e+00
267.000      3.51374e+00
268.000      3.51515e+00
269.000      3.62857e+00
270.000      3.79645e+00
271.000      3.95079e+00
272.000      4.02857e+00
273.000      3.98648e+00
274.000      3.81096e+00
275.000      3.52083e+00
276.000      3.16202e+00
277.000      2.79611e+00
278.000      2.48623e+00
279.000      2.28405e+00
280.000      2.22105e+00
281.000      2.30547e+00
282.000      2.52485e+00
283.000      2.85266e+00
284.000      3.25648e+00
285.000      3.70560e+00
286.000      4.17607e+00
287.000      4.65242e+00
288.000      5.12657e+00
289.000      5.59490e+00
290.000      6.05518e+00
291.000      6.50437e+00
292.000      6.93785e+00
293.000      7.34971e+00
294.000      7.73341e+00
295.000      8.08238e+00
296.000      8.39035e+00
297.000      8.65151e+00
298.000      8.86089e+00
299.000      9.01479e+00
300.000      9.11129e+00
301.000      9.15074e+00
302.000      9.13600e+00
303.000      9.07293e+00
304.000      8.97108e+00
305.000      8.84448e+00
306.000      8.71211e+00
307.000      8.59743e+00
308.000      8.52641e+00
309.000      8.52408e+00
310.000      8.61030e+00
311.000      8.79561e+00
312.000      9.07850e+00
313.000      9.44492e+00
314.000      9.87040e+00
315.000      1.03244e+01
316.000      1.07759e+01
317.000      1.11997e+01
318.000      1.15815e+01
319.000      1.19212e+01
320.000      1.22340e+01
321.000      1.25482e+01
322.000      1.29004e+01
323.000      1.33284e+01
324.000      1.38634e+01
325.000      1.45220e+01
326.000      1.53012e+01
327.000      1.61761e+01
328.000      1.71018e+01
329.000      1.80193e+01
330.000      1.88641e+01
331.000      1.95781e+01
332.000      2.01196e+01
333.000      2.04721e+01
334.000      2.06479e+01
335.000      2.06854e+01
336.000      2.06413e+01
337.000      2.05794e+01
338.000      2.05578e+01
339.000      2.06191e+01
340.000      2.07838e+01
341.000      2.10490e+01
342.000      2.13921e+01
343.000      2.17781e+01
344.000      2.21687e+01
345.000      2.25316e+01
346.000      2.28476e+01
347.000      2.31136e+01
348.000      2.33411e+01
349.000      2.35516e+01
350.000      2.37689e+01
351.000      2.40120e+01
352.000      2.42889e+01
353.000      2.45921e+01
354.000      2.48966e+01
355.000      2.51597e+01
356.000      2.53247e+01
357.000      2.53260e+01
358.000      2.50995e+01
359.000      2.45938e+01
360.000      2.37817e+01
361.000      2.26687e+01
362.000      2.12956e+01
363.000      1.97337e+01
364.000      1.80747e+01
365.000      1.64148e+01
366.000      1.48407e+01
367.000      1.34163e+01
368.000      1.21768e+01
369.000      1.11283e+01
370.000      1.02538e+01
371.000      9.52297e+00
372.000      8.90385e+00
373.000      8.37315e+00
374.000      7.92320e+00
375.000      7.56445e+00
376.000      7.32330e+00
377.000      7.23629e+00
378.000      7.34228e+00
379.000      7.67449e+00
380.000      8.25377e+00
381.000      9.08415e+00
382.000      1.01506e+01
383.000      1.14187e+01
384.000      1.28356e+01
385.000      1.43311e+01
386.000      1.58199e+01
387.000      1.72046e+01
388.000      1.83798e+01
389.000      1.92395e+01
390.000      1.96871e+01
391.000      1.96476e+01
392.000      1.90805e+01
393.000      1.79911e+01
394.000      1.64358e+01
395.000      1.45192e+01
396.000      1.23830e+01
397.000      1.01867e+01
398.000      8.08598e+00
399.000      6.21225e+00
400.000      4.65791e+00
401.000      3.47021e+00
402.000      2.65279e+00
403.000      2.17320e+00
404.000      1.97343e+00
405.000      1.98141e+00
406.000      2.12176e+00
407.000      2.32531e+00
408.000      2.53655e+00
409.000      2.71854e+00
410.000      2.85429e+00
411.000      2.94447e+00
412.000      3.00189e+00
413.000      3.04407e+00
414.000      3.08598e+00
415.000      3.13449e+00
416.000      3.18590e+00
417.000      3.22667e+00
418.000      3.23687e+00
419.000      3.19539e+00
420.000      3.08544e+00
421.000      2.89903e+00
422.000      2.63951e+00
423.000      2.32152e+00
424.000      1.96864e+00
425.000      1.60926e+00
426.000      1.27198e+00
427.000      9.81531e-01
428.000      7.55935e-01
429.000      6.05182e-01
430.000      5.31077e-01
431.000      5.27759e-01
432.000      5.82535e-01
433.000      6.77000e-01
434.000      7.88734e-01
435.000      8.93892e-01
436.000      9.70612e-01
437.000      1.00266e+00
438.000      9.82302e-01
439.000      9.11425e-01
440.000      8.00420e-01
441.000      6.65155e-01
442.000      5.22979e-01
443.000      3.89027e-01
444.000      2.73780e-01
445.000      1.82282e-01
446.000      1.14817e-01
447.000      6.84204e-02
448.000      3.85730e-02
449.000      2.05730e-02
450.000      1.03808e-02
451.000      4.95544e-03
452.000      2.23795e-03
453.000      9.56173e-04
454.000      3.86492e-04
455.000      1.47796e-04
456.000      5.34687e-05
457.000      1.83002e-05
458.000      5.92557e-06
459.000      1.81519e-06
460.000      5.26055e-07
461.000      1.44231e-07
462.000      3.74112e-08
463.000      9.18045e-09
464.000      2.13129e-09
465.000      4.68102e-10
466.000      9.72647e-11
467.000      1.91200e-11
468.000      3.55580e-12
469.000      6.25612e-13
470.000      1.04133e-13
471.000      1.63981e-14
472.000      2.44294e-15
473.000      3.44311e-16
474.000      4.59099e-17
475.000      5.79135e-18
476.000      6.91147e-19
477.000      7.80331e-20
478.000      8.33498e-21
479.000      8.42264e-22
480.000      8.05210e-23
481.000      7.28263e-24
482.000      6.23138e-25
483.000      5.04427e-26
484.000      3.86305e-27
485.000      2.79885e-28
486.000      1.91843e-29
487.000      1.24403e-30
488.000      7.63189e-32
489.000      4.42947e-33
490.000      2.43214e-34
491.000      1.26341e-35
492.000      6.20892e-37
493.000      2.88673e-38
494.000      1.26974e-39
495.000      5.28370e-41
496.000      2.08009e-42
497.000      7.74714e-44
498.000      2.72973e-45
499.000      9.09945e-47
500.000      2.86964e-48
