# Gaussian folded, width=10 cm^-1
# [cm^-1] arbitrary
0.000      3.00000e+00
1.000      2.91796e+00
2.000      2.68508e+00
3.000      2.33749e+00
4.000      1.92514e+00
5.000      1.50000e+00
6.000      1.10570e+00
7.000      7.71085e-01
8.000      5.08727e-01
9.000      3.17530e-01
10.000      1.87500e-01
11.000      1.04746e-01
12.000      5.53609e-02
13.000      2.76859e-02
14.000      1.31141e-02
15.000      5.92394e-03
16.000      2.66966e-03
17.000      1.51786e-03
18.000      1.75554e-03
19.000      3.57447e-03
20.000      8.18040e-03
21.000      1.82592e-02
22.000      3.88111e-02
23.000      7.82878e-02
24.000      1.49795e-01
25.000      2.71863e-01
26.000      4.68021e-01
27.000      7.64280e-01
28.000      1.18391e+00
29.000      1.73966e+00
30.000      2.42488e+00
31.000      3.20619e+00
32.000      4.02114e+00
33.000      4.78362e+00
34.000      5.39751e+00
35.000      5.77614e+00
36.000      5.86228e+00
37.000      5.64226e+00
38.000      5.14958e+00
39.000      4.45663e+00
40.000      3.65740e+00
41.000      2.84699e+00
42.000      2.10426e+00
43.000      1.48192e+00
44.000      1.00544e+00
45.000      6.79066e-01
46.000      4.95512e-01
47.000      4.45574e-01
48.000      5.24807e-01
49.000      7.35638e-01
50.000      1.08456e+00
51.000      1.57527e+00
52.000      2.19965e+00
53.000      2.92941e+00
54.000      3.71159e+00
55.000      4.47063e+00
56.000      5.11810e+00
57.000      5.56858e+00
58.000      5.75774e+00
59.000      5.65729e+00
60.000      5.28187e+00
61.000      4.68567e+00
62.000      3.94994e+00
63.000      3.16531e+00
64.000      2.41474e+00
65.000      1.76151e+00
66.000      1.24484e+00
67.000      8.82611e-01
68.000      6.78551e-01
69.000      6.30504e-01
70.000      7.36392e-01
71.000      9.95955e-01
72.000      1.40784e+00
73.000      1.96328e+00
74.000      2.63886e+00
75.000      3.39172e+00
76.000      4.16000e+00
77.000      4.87031e+00
78.000      5.45135e+00
79.000      5.85077e+00
80.000      6.05013e+00
81.000      6.07324e+00
82.000      5.98419e+00
83.000      5.87505e+00
84.000      5.84634e+00
85.000      5.98563e+00
86.000      6.35039e+00
87.000      6.95937e+00
88.000      7.79366e+00
89.000      8.80564e+00
90.000      9.93141e+00
91.000      1.11024e+01
92.000      1.22528e+01
93.000      1.33226e+01
94.000      1.42571e+01
95.000      1.50057e+01
96.000      1.55231e+01
97.000      1.57722e+01
98.000      1.57297e+01
99.000      1.53913e+01
100.000      1.47754e+01
101.000      1.39226e+01
102.000      1.28914e+01
103.000      1.17519e+01
104.000      1.05768e+01
105.000      9.43570e+00
106.000      8.39021e+00
107.000      7.49312e+00
108.000      6.78870e+00
109.000      6.31314e+00
110.000      6.09359e+00
111.000      6.14530e+00
112.000      6.46796e+00
113.000      7.04308e+00
114.000      7.83432e+00
115.000      8.79119e+00
116.000      9.85555e+00
117.000      1.09689e+01
118.000      1.20780e+01
119.000      1.31385e+01
120.000      1.41147e+01
121.000      1.49788e+01
122.000      1.57086e+01
123.000      1.62865e+01
124.000      1.66994e+01
125.000      1.69403e+01
126.000      1.70095e+01
127.000      1.69162e+01
128.000      1.66798e+01
129.000      1.63281e+01
130.000      1.58952e+01
131.000      1.54162e+01
132.000      1.49225e+01
133.000      1.44361e+01
134.000      1.39677e+01
135.000      1.35168e+01
136.000      1.30758e+01
137.000      1.26355e+01
138.000      1.21914e+01
139.000      1.17481e+01
140.000      1.13195e+01
141.000      1.09257e+01
142.000      1.05869e+01
143.000      1.03167e+01
144.000      1.01178e+01
145.000      9.98107e+00
146.000      9.88882e+00
147.000      9.82035e+00
148.000      9.75759e+00
149.000      9.68877e+00
150.000      9.60896e+00
151.000      9.51806e+00
152.000      9.41762e+00
153.000      9.30820e+00
154.000      9.18823e+00
155.000      9.05429e+00
156.000      8.90228e+00
157.000      8.72870e+00
158.000      8.53181e+00
159.000      8.31287e+00
160.000      8.07761e+00
161.000      7.83771e+00
162.000      7.61133e+00
163.000      7.42184e+00
164.000      7.29398e+00
165.000      7.24832e+00
166.000      7.29582e+00
167.000      7.43471e+00
168.000      7.65131e+00
169.000      7.92471e+00
170.000      8.23353e+00
171.000      8.56213e+00
172.000      8.90405e+00
173.000      9.26175e+00
174.000      9.64337e+00
175.000      1.00581e+01
176.000      1.05116e+01
177.000      1.10030e+01
178.000      1.15236e+01
179.000      1.20574e+01
180.000      1.25831e+01
181.000      1.30782e+01
182.000      1.35223e+01
183.000      1.39008e+01
184.000      1.42067e+01
185.000      1.44407e+01
186.000      1.46100e+01
187.000      1.47275e+01
188.000      1.48110e+01
189.000      1.48830e+01
190.000      1.49702e+01
191.000      1.51013e+01
192.000      1.53025e+01
193.000      1.55920e+01
194.000      1.59759e+01
195.000      1.64454e+01
196.000      1.69793e+01
197.000      1.75481e+01
198.000      1.81201e+01
199.000      1.86649e+01
200.000      1.91554e+01
201.000      1.95659e+01
202.000      1.98703e+01
203.000      2.00402e+01
204.000      2.00466e+01
205.000      1.98635e+01
206.000      1.94743e+01
207.000      1.88765e+01
208.000      1.80851e+01
209.000      1.71319e+01
210.000      1.60622e+01
211.000      1.49285e+01
212.000      1.37842e+01
213.000      1.26781e+01
214.000      1.16513e+01
215.000      1.07361e+01
216.000      9.95644e+00
217.000      9.32988e+00
218.000      8.86832e+00
219.000      8.57820e+00
220.000      8.45901e+00
221.000      8.50079e+00
222.000      8.68194e+00
223.000      8.96888e+00
224.000      9.31882e+00
225.000      9.68575e+00
226.000      1.00287e+01
227.000      1.03195e+01
228.000      1.05483e+01
229.000      1.07240e+01
230.000      1.08714e+01
231.000      1.10242e+01
232.000      1.12180e+01
233.000      1.14827e+01
234.000      1.18367e+01
235.000      1.22836e+01
236.000      1.28099e+01
237.000      1.33868e+01
238.000      1.39739e+01
239.000      1.45256e+01
240.000      1.49985e+01
241.000      1.53580e+01
242.000      1.55823e+01
243.000      1.56633e+01
244.000      1.56053e+01
245.000      1.54221e+01
246.000      1.51335e+01
247.000      1.47622e+01
248.000      1.43313e+01
249.000      1.38615e+01
250.000      1.33684e+01
251.000      1.28601e+01
252.000      1.23368e+01
253.000      1.17913e+01
254.000      1.12120e+01
255.000      1.05876e+01
256.000      9.91273e+00
257.000      9.19219e+00
258.000      8.44348e+00
259.000      7.69519e+00
260.000      6.98202e+00
261.000      6.33759e+00
262.000      5.78754e+00
263.000      5.34560e+00
264.000      5.01419e+00
265.000      4.78946e+00
266.000      4.66859e+00
267.000      4.65658e+00
268.000      4.76961e+00
269.000      5.03369e+00
270.000      5.47877e+00
271.000      6.13016e+00
272.000      6.99938e+00
273.000      8.07717e+00
274.000      9.33012e+00
275.000      1.07022e+01
276.000      1.21208e+01
277.000      1.35064e+01
278.000      1.47835e+01
279.000      1.58907e+01
280.000      1.67875e+01
281.000      1.74561e+01
282.000      1.78982e+01
283.000      1.81287e+01
284.000      1.81674e+01
285.000      1.80329e+01
286.000      1.77392e+01
287.000      1.72961e+01
288.000      1.67125e+01
289.000      1.60002e+01
290.000      1.51778e+01
291.000      1.42713e+01
292.000      1.33130e+01
293.000      1.23375e+01
294.000      1.13780e+01
295.000      1.04622e+01
296.000      9.61084e+00
297.000      8.83675e+00
298.000      8.14608e+00
299.000      7.53935e+00
300.000      7.01215e+00
301.000      6.55534e+00
302.000      6.15517e+00
303.000      5.79438e+00
304.000      5.45479e+00
305.000      5.12124e+00
306.000      4.78571e+00
307.000      4.45005e+00
308.000      4.12598e+00
309.000      3.83213e+00
310.000      3.58888e+00
311.000      3.41271e+00
312.000      3.31161e+00
313.000      3.28293e+00
314.000      3.31411e+00
315.000      3.38616e+00
316.000      3.47902e+00
317.000      3.57753e+00
318.000      3.67615e+00
319.000      3.78078e+00
320.000      3.90666e+00
321.000      4.07270e+00
322.000      4.29417e+00
323.000      4.57683e+00
324.000      4.91523e+00
325.000      5.29608e+00
326.000      5.70533e+00
327.000      6.13558e+00
328.000      6.59001e+00
329.000      7.08074e+00
330.000      7.62239e+00
331.000      8.22385e+00
332.000      8.88234e+00
333.000      9.58231e+00
334.000      1.02994e+01
335.000      1.10072e+01
336.000      1.16834e+01
337.000      1.23125e+01
338.000      1.28855e+01
339.000      1.33964e+01
340.000      1.38385e+01
341.000      1.42030e+01
342.000      1.44786e+01
343.000      1.46546e+01
344.000      1.47223e+01
345.000      1.46768e+01
346.000      1.45170e+01
347.000      1.42440e+01
348.000      1.38613e+01
349.000      1.33746e+01
350.000      1.27937e+01
351.000      1.21350e+01
352.000      1.14226e+01
353.000      1.06881e+01
354.000      9.96665e+00
355.000      9.29281e+00
356.000      8.69440e+00
357.000      8.18817e+00
358.000      7.77765e+00
359.000      7.45390e+00
360.000      7.19883e+00
361.000      6.98995e+00
362.000      6.80506e+00
363.000      6.62580e+00
364.000      6.43918e+00
365.000      6.23737e+00
366.000      6.01612e+00
367.000      5.77319e+00
368.000      5.50744e+00
369.000      5.21928e+00
370.000      4.91230e+00
371.000      4.59504e+00
372.000      4.28179e+00
373.000      3.99140e+00
374.000      3.74400e+00
375.000      3.55670e+00
376.000      3.43973e+00
377.000      3.39478e+00
378.000      3.41577e+00
379.000      3.49161e+00
380.000      3.60907e+00
381.000      3.75441e+00
382.000      3.91312e+00
383.000      4.06880e+00
384.000      4.20257e+00
385.000      4.29445e+00
386.000      4.32656e+00
387.000      4.28709e+00
388.000      4.17330e+00
389.000      3.99203e+00
390.000      3.75787e+00
391.000      3.48965e+00
392.000      3.20664e+00
393.000      2.92552e+00
394.000      2.65834e+00
395.000      2.41157e+00
396.000      2.18606e+00
397.000      1.97778e+00
398.000      1.77954e+00
399.000      1.58360e+00
400.000      1.38435e+00
401.000      1.18041e+00
402.000      9.75278e-01
403.000      7.76355e-01
404.000      5.92681e-01
405.000      4.32361e-01
406.000      3.00579e-01
407.000      1.98737e-01
408.000      1.24788e-01
409.000      7.43313e-02
410.000      4.19705e-02
411.000      2.24517e-02
412.000      1.13740e-02
413.000      5.45526e-03
414.000      2.47664e-03
415.000      1.06413e-03
416.000      4.32674e-04
417.000      1.66468e-04
418.000      6.06012e-05
419.000      2.08734e-05
420.000      6.80231e-06
421.000      2.09730e-06
422.000      6.11785e-07
423.000      1.68837e-07
424.000      4.40820e-08
425.000      1.08888e-08
426.000      2.54461e-09
427.000      5.62578e-10
428.000      1.17670e-10
429.000      2.32844e-11
430.000      4.35899e-12
431.000      7.72014e-13
432.000      1.29355e-13
433.000      2.05049e-14
434.000      3.07504e-15
435.000      4.36276e-16
436.000      5.85585e-17
437.000      7.43595e-18
438.000      8.93306e-19
439.000      1.01527e-19
440.000      1.09165e-20
441.000      1.11045e-21
442.000      1.06865e-22
443.000      9.72940e-24
444.000      8.38023e-25
445.000      6.82879e-26
446.000      5.26440e-27
447.000      3.83947e-28
448.000      2.64918e-29
449.000      1.72930e-30
450.000      1.06794e-31
451.000      6.23934e-33
452.000      3.44865e-34
453.000      1.80334e-35
454.000      8.92121e-37
455.000      4.17530e-38
456.000      1.84871e-39
457.000      7.74404e-41
458.000      3.06891e-42
459.000      1.15058e-43
460.000      4.08103e-45
461.000      1.36943e-46
462.000      4.34736e-48
463.000      1.30566e-49
464.000      3.70981e-51
465.000      9.97222e-53
466.000      2.53600e-54
467.000      6.10132e-56
468.000      1.38872e-57
469.000      2.99038e-59
470.000      6.09191e-61
471.000      1.17408e-62
472.000      2.14073e-64
473.000      3.69269e-66
474.000      6.02616e-68
475.000      9.30370e-70
476.000      1.35891e-71
477.000      1.87776e-73
478.000      2.45476e-75
479.000      3.03595e-77
480.000      3.55221e-79
481.000      3.93205e-81
482.000      4.11773e-83
483.000      4.07957e-85
484.000      3.82374e-87
485.000      3.39063e-89
486.000      2.84439e-91
487.000      2.25744e-93
488.000      1.69496e-95
489.000      1.20399e-97
490.000     8.09100e-100
491.000     5.14398e-102
492.000     3.09396e-104
493.000     1.76054e-106
494.000     9.47757e-109
495.000     4.82686e-111
496.000     2.32568e-113
497.000     1.06011e-115
498.000     4.57165e-118
499.000     1.86514e-120
500.000     7.19891e-123
