# Gaussian folded, width=10 cm^-1
# [cm^-1] arbitrary
0.000      3.00000e+00
1.000      2.91796e+00
2.000      2.68508e+00
3.000      2.33749e+00
4.000      1.92514e+00
5.000      1.50000e+00
6.000      1.10570e+00
7.000      7.71085e-01
8.000      5.08727e-01
9.000      3.17529e-01
10.000      1.87500e-01
11.000      1.04746e-01
12.000      5.53593e-02
13.000      2.76805e-02
14.000      1.30965e-02
15.000      5.87023e-03
16.000      2.51470e-03
17.000      1.09458e-03
18.000      6.60892e-04
19.000      8.94665e-04
20.000      1.97107e-03
21.000      4.64474e-03
22.000      1.05727e-02
23.000      2.29022e-02
24.000      4.71249e-02
25.000      9.21074e-02
26.000      1.71042e-01
27.000      3.01844e-01
28.000      5.06333e-01
29.000      8.07537e-01
30.000      1.22476e+00
31.000      1.76679e+00
32.000      2.42452e+00
33.000      3.16540e+00
34.000      3.93217e+00
35.000      4.64789e+00
36.000      5.22759e+00
37.000      5.59442e+00
38.000      5.69622e+00
39.000      5.51759e+00
40.000      5.08375e+00
41.000      4.45475e+00
42.000      3.71191e+00
43.000      2.94079e+00
44.000      2.21555e+00
45.000      1.58876e+00
46.000      1.08826e+00
47.000      7.20458e-01
48.000      4.77679e-01
49.000      3.46666e-01
50.000      3.15832e-01
51.000      3.79679e-01
52.000      5.39813e-01
53.000      8.02683e-01
54.000      1.17477e+00
55.000      1.65639e+00
56.000      2.23565e+00
57.000      2.88434e+00
58.000      3.55727e+00
59.000      4.19594e+00
60.000      4.73619e+00
61.000      5.11850e+00
62.000      5.29856e+00
63.000      5.25543e+00
64.000      4.99550e+00
65.000      4.55111e+00
66.000      3.97451e+00
67.000      3.32873e+00
68.000      2.67765e+00
69.000      2.07768e+00
70.000      1.57245e+00
71.000      1.19112e+00
72.000      9.49671e-01
73.000      8.53693e-01
74.000      9.01227e-01
75.000      1.08444e+00
76.000      1.38992e+00
77.000      1.79805e+00
78.000      2.28270e+00
79.000      2.81192e+00
80.000      3.35044e+00
81.000      3.86341e+00
82.000      4.32070e+00
83.000      4.70093e+00
84.000      4.99453e+00
85.000      5.20543e+00
86.000      5.35130e+00
87.000      5.46205e+00
88.000      5.57630e+00
89.000      5.73584e+00
90.000      5.97883e+00
91.000      6.33294e+00
92.000      6.81029e+00
93.000      7.40548e+00
94.000      8.09723e+00
95.000      8.85283e+00
96.000      9.63377e+00
97.000      1.04009e+01
98.000      1.11179e+01
99.000      1.17529e+01
100.000      1.22783e+01
101.000      1.26710e+01
102.000      1.29128e+01
103.000      1.29916e+01
104.000      1.29035e+01
105.000      1.26546e+01
106.000      1.22618e+01
107.000      1.17514e+01
108.000      1.11566e+01
109.000      1.05140e+01
110.000      9.86021e+00
111.000      9.22820e+00
112.000      8.64593e+00
113.000      8.13508e+00
114.000      7.71109e+00
115.000      7.38418e+00
116.000      7.16116e+00
117.000      7.04747e+00
118.000      7.04874e+00
119.000      7.17088e+00
120.000      7.41844e+00
121.000      7.79163e+00
122.000      8.28313e+00
123.000      8.87618e+00
124.000      9.54473e+00
125.000      1.02560e+01
126.000      1.09745e+01
127.000      1.16669e+01
128.000      1.23065e+01
129.000      1.28753e+01
130.000      1.33649e+01
131.000      1.37743e+01
132.000      1.41061e+01
133.000      1.43615e+01
134.000      1.45376e+01
135.000      1.46261e+01
136.000      1.46169e+01
137.000      1.45035e+01
138.000      1.42877e+01
139.000      1.39833e+01
140.000      1.36140e+01
141.000      1.32089e+01
142.000      1.27962e+01
143.000      1.23982e+01
144.000      1.20288e+01
145.000      1.16939e+01
146.000      1.13938e+01
147.000      1.11256e+01
148.000      1.08836e+01
149.000      1.06602e+01
150.000      1.04453e+01
151.000      1.02275e+01
152.000      9.99538e+00
153.000      9.74072e+00
154.000      9.46058e+00
155.000      9.15894e+00
156.000      8.84654e+00
157.000      8.53912e+00
158.000      8.25437e+00
159.000      8.00821e+00
160.000      7.81116e+00
161.000      7.66577e+00
162.000      7.56608e+00
163.000      7.49965e+00
164.000      7.45216e+00
165.000      7.41335e+00
166.000      7.38238e+00
167.000      7.37048e+00
168.000      7.39952e+00
169.000      7.49657e+00
170.000      7.68617e+00
171.000      7.98276e+00
172.000      8.38550e+00
173.000      8.87689e+00
174.000      9.42488e+00
175.000      9.98747e+00
176.000      1.05185e+01
177.000      1.09739e+01
178.000      1.13169e+01
179.000      1.15240e+01
180.000      1.15886e+01
181.000      1.15233e+01
182.000      1.13587e+01
183.000      1.11386e+01
184.000      1.09125e+01
185.000      1.07265e+01
186.000      1.06144e+01
187.000      1.05925e+01
188.000      1.06575e+01
189.000      1.07886e+01
190.000      1.09533e+01
191.000      1.11139e+01
192.000      1.12354e+01
193.000      1.12921e+01
194.000      1.12716e+01
195.000      1.11776e+01
196.000      1.10289e+01
197.000      1.08567e+01
198.000      1.06985e+01
199.000      1.05918e+01
200.000      1.05658e+01
201.000      1.06348e+01
202.000      1.07948e+01
203.000      1.10225e+01
204.000      1.12796e+01
205.000      1.15195e+01
206.000      1.16948e+01
207.000      1.17651e+01
208.000      1.17014e+01
209.000      1.14891e+01
210.000      1.11282e+01
211.000      1.06325e+01
212.000      1.00293e+01
213.000      9.35848e+00
214.000      8.67081e+00
215.000      8.02523e+00
216.000      7.48320e+00
217.000      7.10106e+00
218.000      6.92156e+00
219.000      6.96660e+00
220.000      7.23347e+00
221.000      7.69522e+00
222.000      8.30503e+00
223.000      9.00302e+00
224.000      9.72388e+00
225.000      1.04043e+01
226.000      1.09902e+01
227.000      1.14434e+01
228.000      1.17469e+01
229.000      1.19092e+01
230.000      1.19626e+01
231.000      1.19583e+01
232.000      1.19547e+01
233.000      1.20044e+01
234.000      1.21415e+01
235.000      1.23741e+01
236.000      1.26829e+01
237.000      1.30276e+01
238.000      1.33578e+01
239.000      1.36252e+01
240.000      1.37944e+01
241.000      1.38491e+01
242.000      1.37917e+01
243.000      1.36397e+01
244.000      1.34173e+01
245.000      1.31476e+01
246.000      1.28472e+01
247.000      1.25235e+01
248.000      1.21762e+01
249.000      1.18019e+01
250.000      1.13984e+01
251.000      1.09689e+01
252.000      1.05233e+01
253.000      1.00772e+01
254.000      9.64886e+00
255.000      9.25526e+00
256.000      8.90804e+00
257.000      8.61138e+00
258.000      8.36178e+00
259.000      8.14985e+00
260.000      7.96314e+00
261.000      7.78883e+00
262.000      7.61539e+00
263.000      7.43289e+00
264.000      7.23266e+00
265.000      7.00725e+00
266.000      6.75141e+00
267.000      6.46416e+00
268.000      6.15102e+00
269.000      5.82560e+00
270.000      5.50956e+00
271.000      5.23091e+00
272.000      5.02082e+00
273.000      4.90960e+00
274.000      4.92210e+00
275.000      5.07323e+00
276.000      5.36409e+00
277.000      5.77978e+00
278.000      6.28999e+00
279.000      6.85298e+00
280.000      7.42230e+00
281.000      7.95458e+00
282.000      8.41613e+00
283.000      8.78637e+00
284.000      9.05776e+00
285.000      9.23312e+00
286.000      9.32202e+00
287.000      9.33777e+00
288.000      9.29531e+00
289.000      9.20991e+00
290.000      9.09590e+00
291.000      8.96537e+00
292.000      8.82727e+00
293.000      8.68717e+00
294.000      8.54818e+00
295.000      8.41203e+00
296.000      8.27988e+00
297.000      8.15184e+00
298.000      8.02557e+00
299.000      7.89486e+00
300.000      7.74941e+00
301.000      7.57663e+00
302.000      7.36516e+00
303.000      7.10882e+00
304.000      6.80934e+00
305.000      6.47683e+00
306.000      6.12803e+00
307.000      5.78348e+00
308.000      5.46492e+00
309.000      5.19372e+00
310.000      4.99019e+00
311.000      4.87297e+00
312.000      4.85784e+00
313.000      4.95579e+00
314.000      5.17137e+00
315.000      5.50195e+00
316.000      5.93842e+00
317.000      6.46672e+00
318.000      7.06911e+00
319.000      7.72444e+00
320.000      8.40757e+00
321.000      9.08913e+00
322.000      9.73711e+00
323.000      1.03210e+01
324.000      1.08175e+01
325.000      1.12167e+01
326.000      1.15249e+01
327.000      1.17651e+01
328.000      1.19725e+01
329.000      1.21872e+01
330.000      1.24459e+01
331.000      1.27739e+01
332.000      1.31811e+01
333.000      1.36601e+01
334.000      1.41908e+01
335.000      1.47472e+01
336.000      1.53054e+01
337.000      1.58504e+01
338.000      1.63783e+01
339.000      1.68941e+01
340.000      1.74072e+01
341.000      1.79256e+01
342.000      1.84517e+01
343.000      1.89819e+01
344.000      1.95070e+01
345.000      2.00145e+01
346.000      2.04898e+01
347.000      2.09171e+01
348.000      2.12798e+01
349.000      2.15599e+01
350.000      2.17388e+01
351.000      2.17985e+01
352.000      2.17220e+01
353.000      2.14957e+01
354.000      2.11101e+01
355.000      2.05614e+01
356.000      1.98529e+01
357.000      1.89950e+01
358.000      1.80057e+01
359.000      1.69098e+01
360.000      1.57382e+01
361.000      1.45256e+01
362.000      1.33093e+01
363.000      1.21256e+01
364.000      1.10081e+01
365.000      9.98468e+00
366.000      9.07594e+00
367.000      8.29461e+00
368.000      7.64541e+00
369.000      7.12572e+00
370.000      6.72623e+00
371.000      6.43199e+00
372.000      6.22371e+00
373.000      6.08020e+00
374.000      5.98184e+00
375.000      5.91491e+00
376.000      5.87565e+00
377.000      5.87267e+00
378.000      5.92626e+00
379.000      6.06451e+00
380.000      6.31651e+00
381.000      6.70408e+00
382.000      7.23364e+00
383.000      7.88955e+00
384.000      8.63045e+00
385.000      9.38993e+00
386.000      1.00827e+01
387.000      1.06164e+01
388.000      1.09084e+01
389.000      1.09029e+01
390.000      1.05845e+01
391.000      9.98338e+00
392.000      9.16908e+00
393.000      8.23544e+00
394.000      7.27980e+00
395.000      6.38362e+00
396.000      5.59953e+00
397.000      4.94757e+00
398.000      4.42003e+00
399.000      3.99157e+00
400.000      3.63059e+00
401.000      3.30845e+00
402.000      3.00496e+00
403.000      2.71022e+00
404.000      2.42379e+00
405.000      2.15235e+00
406.000      1.90661e+00
407.000      1.69781e+00
408.000      1.53424e+00
409.000      1.41830e+00
410.000      1.34516e+00
411.000      1.30360e+00
412.000      1.27918e+00
413.000      1.25855e+00
414.000      1.23358e+00
415.000      1.20322e+00
416.000      1.17256e+00
417.000      1.14918e+00
418.000      1.13842e+00
419.000      1.13969e+00
420.000      1.14527e+00
421.000      1.14225e+00
422.000      1.11675e+00
423.000      1.05864e+00
424.000      9.64934e-01
425.000      8.40748e-01
426.000      6.97536e-01
427.000      5.49695e-01
428.000      4.10827e-01
429.000      2.90912e-01
430.000      1.95064e-01
431.000      1.23808e-01
432.000      7.43670e-02
433.000      4.22686e-02
434.000      2.27314e-02
435.000      1.15661e-02
436.000      5.56776e-03
437.000      2.53574e-03
438.000      1.09258e-03
439.000      4.45375e-04
440.000      1.71758e-04
441.000      6.26653e-05
442.000      2.16300e-05
443.000      7.06323e-06
444.000      2.18207e-06
445.000      6.37751e-07
446.000      1.76340e-07
447.000      4.61286e-08
448.000      1.14158e-08
449.000      2.67276e-09
450.000      5.92013e-10
451.000      1.24057e-10
452.000      2.45938e-11
453.000      4.61265e-12
454.000      8.18450e-13
455.000      1.37389e-13
456.000      2.18187e-14
457.000      3.27810e-15
458.000      4.65945e-16
459.000      6.26562e-17
460.000      7.97098e-18
461.000      9.59349e-19
462.000      1.09234e-19
463.000      1.17668e-20
464.000      1.19916e-21
465.000      1.15614e-22
466.000      1.05454e-23
467.000      9.09987e-25
468.000      7.42888e-26
469.000      5.73758e-27
470.000      4.19230e-28
471.000      2.89796e-29
472.000      1.89518e-30
473.000      1.17254e-31
474.000      6.86311e-33
475.000      3.80043e-34
476.000      1.99095e-35
477.000      9.86752e-37
478.000      4.62671e-38
479.000      2.05236e-39
480.000      8.61297e-41
481.000      3.41956e-42
482.000      1.28441e-43
483.000      4.56411e-45
484.000      1.53435e-46
485.000      4.87992e-48
486.000      1.46831e-49
487.000      4.17965e-51
488.000      1.12559e-52
489.000      2.86773e-54
490.000      6.91215e-56
491.000      1.57618e-57
492.000      3.40030e-59
493.000      6.93977e-61
494.000      1.33996e-62
495.000      2.44767e-64
496.000      4.22994e-66
497.000      6.91565e-68
498.000      1.06967e-69
499.000      1.56525e-71
500.000      2.16688e-73
