# Gaussian folded, width=10 cm^-1
# [cm^-1] arbitrary
0.000      3.00000e+00
1.000      2.91796e+00
2.000      2.68508e+00
3.000      2.33749e+00
4.000      1.92514e+00
5.000      1.50000e+00
6.000      1.10570e+00
7.000      7.71085e-01
8.000      5.08727e-01
9.000      3.17529e-01
10.000      1.87500e-01
11.000      1.04746e-01
12.000      5.53593e-02
13.000      2.76807e-02
14.000      1.30971e-02
15.000      5.87223e-03
16.000      2.52045e-03
17.000      1.11014e-03
18.000      7.00525e-04
19.000      9.89598e-04
20.000      2.18461e-03
21.000      5.09504e-03
22.000      1.14610e-02
23.000      2.45366e-02
24.000      4.99174e-02
25.000      9.65102e-02
26.000      1.77384e-01
27.000      3.10042e-01
28.000      5.15515e-01
29.000      8.15679e-01
30.000      1.22853e+00
31.000      1.76180e+00
32.000      2.40622e+00
33.000      3.13040e+00
34.000      3.87977e+00
35.000      4.58121e+00
36.000      5.15378e+00
37.000      5.52351e+00
38.000      5.63891e+00
39.000      5.48264e+00
40.000      5.07575e+00
41.000      4.47316e+00
42.000      3.75158e+00
43.000      2.99364e+00
44.000      2.27277e+00
45.000      1.64275e+00
46.000      1.13376e+00
47.000      7.54736e-01
48.000      5.00066e-01
49.000      3.57740e-01
50.000      3.16693e-01
51.000      3.71554e-01
52.000      5.24032e-01
53.000      7.80940e-01
54.000      1.14947e+00
55.000      1.63083e+00
56.000      2.21396e+00
57.000      2.87102e+00
58.000      3.55647e+00
59.000      4.21060e+00
60.000      4.76727e+00
61.000      5.16451e+00
62.000      5.35541e+00
63.000      5.31691e+00
64.000      5.05419e+00
65.000      4.59970e+00
66.000      4.00718e+00
67.000      3.34214e+00
68.000      2.67132e+00
69.000      2.05347e+00
70.000      1.53342e+00
71.000      1.14015e+00
72.000      8.88440e-01
73.000      7.82395e-01
74.000      8.19211e-01
75.000      9.91651e-01
76.000      1.28868e+00
77.000      1.69466e+00
78.000      2.18798e+00
79.000      2.74033e+00
80.000      3.31723e+00
81.000      3.88001e+00
82.000      4.38943e+00
83.000      4.81044e+00
84.000      5.11804e+00
85.000      5.30328e+00
86.000      5.37821e+00
87.000      5.37769e+00
88.000      5.35624e+00
89.000      5.37940e+00
90.000      5.51071e+00
91.000      5.79794e+00
92.000      6.26274e+00
93.000      6.89725e+00
94.000      7.66863e+00
95.000      8.52969e+00
96.000      9.43104e+00
97.000      1.03305e+01
98.000      1.11966e+01
99.000      1.20052e+01
100.000      1.27337e+01
101.000      1.33542e+01
102.000      1.38312e+01
103.000      1.41247e+01
104.000      1.41980e+01
105.000      1.40273e+01
106.000      1.36095e+01
107.000      1.29656e+01
108.000      1.21393e+01
109.000      1.11912e+01
110.000      1.01919e+01
111.000      9.21448e+00
112.000      8.32735e+00
113.000      7.58788e+00
114.000      7.03658e+00
115.000      6.69268e+00
116.000      6.55272e+00
117.000      6.59310e+00
118.000      6.77661e+00
119.000      7.06149e+00
120.000      7.41052e+00
121.000      7.79788e+00
122.000      8.21226e+00
123.000      8.65579e+00
124.000      9.13976e+00
125.000      9.67803e+00
126.000      1.02799e+01
127.000      1.09442e+01
128.000      1.16556e+01
129.000      1.23854e+01
130.000      1.30957e+01
131.000      1.37464e+01
132.000      1.43027e+01
133.000      1.47403e+01
134.000      1.50475e+01
135.000      1.52231e+01
136.000      1.52727e+01
137.000      1.52057e+01
138.000      1.50328e+01
139.000      1.47668e+01
140.000      1.44228e+01
141.000      1.40190e+01
142.000      1.35750e+01
143.000      1.31094e+01
144.000      1.26378e+01
145.000      1.21715e+01
146.000      1.17179e+01
147.000      1.12824e+01
148.000      1.08701e+01
149.000      1.04863e+01
150.000      1.01361e+01
151.000      9.82301e+00
152.000      9.54683e+00
153.000      9.30315e+00
154.000      9.08322e+00
155.000      8.87544e+00
156.000      8.66797e+00
157.000      8.45206e+00
158.000      8.22527e+00
159.000      7.99349e+00
160.000      7.77083e+00
161.000      7.57674e+00
162.000      7.43082e+00
163.000      7.34667e+00
164.000      7.32685e+00
165.000      7.36087e+00
166.000      7.42744e+00
167.000      7.50061e+00
168.000      7.55799e+00
169.000      7.58823e+00
170.000      7.59499e+00
171.000      7.59554e+00
172.000      7.61448e+00
173.000      7.67462e+00
174.000      7.78853e+00
175.000      7.95372e+00
176.000      8.15314e+00
177.000      8.36073e+00
178.000      8.54964e+00
179.000      8.70036e+00
180.000      8.80632e+00
181.000      8.87548e+00
182.000      8.92820e+00
183.000      8.99225e+00
184.000      9.09640e+00
185.000      9.26418e+00
186.000      9.50865e+00
187.000      9.82963e+00
188.000      1.02135e+01
189.000      1.06362e+01
190.000      1.10677e+01
191.000      1.14784e+01
192.000      1.18432e+01
193.000      1.21442e+01
194.000      1.23715e+01
195.000      1.25208e+01
196.000      1.25921e+01
197.000      1.25883e+01
198.000      1.25157e+01
199.000      1.23854e+01
200.000      1.22148e+01
201.000      1.20272e+01
202.000      1.18496e+01
203.000      1.17076e+01
204.000      1.16198e+01
205.000      1.15921e+01
206.000      1.16147e+01
207.000      1.16635e+01
208.000      1.17040e+01
209.000      1.16984e+01
210.000      1.16135e+01
211.000      1.14266e+01
212.000      1.11305e+01
213.000      1.07350e+01
214.000      1.02664e+01
215.000      9.76593e+00
216.000      9.28604e+00
217.000      8.88480e+00
218.000      8.61861e+00
219.000      8.53303e+00
220.000      8.65365e+00
221.000      8.97949e+00
222.000      9.48111e+00
223.000      1.01050e+01
224.000      1.07837e+01
225.000      1.14486e+01
226.000      1.20427e+01
227.000      1.25286e+01
228.000      1.28910e+01
229.000      1.31325e+01
230.000      1.32661e+01
231.000      1.33069e+01
232.000      1.32664e+01
233.000      1.31520e+01
234.000      1.29693e+01
235.000      1.27283e+01
236.000      1.24476e+01
237.000      1.21566e+01
238.000      1.18934e+01
239.000      1.16971e+01
240.000      1.15997e+01
241.000      1.16161e+01
242.000      1.17391e+01
243.000      1.19380e+01
244.000      1.21648e+01
245.000      1.23633e+01
246.000      1.24821e+01
247.000      1.24845e+01
248.000      1.23555e+01
249.000      1.21015e+01
250.000      1.17458e+01
251.000      1.13206e+01
252.000      1.08600e+01
253.000      1.03953e+01
254.000      9.95479e+00
255.000      9.56484e+00
256.000      9.25187e+00
257.000      9.04139e+00
258.000      8.95391e+00
259.000      8.99854e+00
260.000      9.16676e+00
261.000      9.42897e+00
262.000      9.73563e+00
263.000      1.00235e+01
264.000      1.02254e+01
265.000      1.02815e+01
266.000      1.01491e+01
267.000      9.80972e+00
268.000      9.27085e+00
269.000      8.56451e+00
270.000      7.74177e+00
271.000      6.86551e+00
272.000      6.00276e+00
273.000      5.21769e+00
274.000      4.56603e+00
275.000      4.09096e+00
276.000      3.82029e+00
277.000      3.76492e+00
278.000      3.91847e+00
279.000      4.25858e+00
280.000      4.74985e+00
281.000      5.34834e+00
282.000      6.00665e+00
283.000      6.67821e+00
284.000      7.31991e+00
285.000      7.89262e+00
286.000      8.36072e+00
287.000      8.69202e+00
288.000      8.85982e+00
289.000      8.84726e+00
290.000      8.65277e+00
291.000      8.29434e+00
292.000      7.81002e+00
293.000      7.25364e+00
294.000      6.68620e+00
295.000      6.16544e+00
296.000      5.73614e+00
297.000      5.42377e+00
298.000      5.23220e+00
299.000      5.14558e+00
300.000      5.13345e+00
301.000      5.15787e+00
302.000      5.18145e+00
303.000      5.17491e+00
304.000      5.12270e+00
305.000      5.02547e+00
306.000      4.89855e+00
307.000      4.76696e+00
308.000      4.65819e+00
309.000      4.59518e+00
310.000      4.59147e+00
311.000      4.65001e+00
312.000      4.76577e+00
313.000      4.93087e+00
314.000      5.14011e+00
315.000      5.39473e+00
316.000      5.70262e+00
317.000      6.07497e+00
318.000      6.52040e+00
319.000      7.03905e+00
320.000      7.61923e+00
321.000      8.23827e+00
322.000      8.86758e+00
323.000      9.48036e+00
324.000      1.00589e+01
325.000      1.05988e+01
326.000      1.11093e+01
327.000      1.16084e+01
328.000      1.21166e+01
329.000      1.26495e+01
330.000      1.32134e+01
331.000      1.38036e+01
332.000      1.44065e+01
333.000      1.50042e+01
334.000      1.55806e+01
335.000      1.61256e+01
336.000      1.66378e+01
337.000      1.71239e+01
338.000      1.75950e+01
339.000      1.80624e+01
340.000      1.85328e+01
341.000      1.90068e+01
342.000      1.94790e+01
343.000      1.99405e+01
344.000      2.03813e+01
345.000      2.07919e+01
346.000      2.11630e+01
347.000      2.14826e+01
348.000      2.17340e+01
349.000      2.18953e+01
350.000      2.19410e+01
351.000      2.18478e+01
352.000      2.15998e+01
353.000      2.11938e+01
354.000      2.06408e+01
355.000      1.99649e+01
356.000      1.91986e+01
357.000      1.83764e+01
358.000      1.75290e+01
359.000      1.66790e+01
360.000      1.58389e+01
361.000      1.50124e+01
362.000      1.41972e+01
363.000      1.33892e+01
364.000      1.25858e+01
365.000      1.17892e+01
366.000      1.10062e+01
367.000      1.02475e+01
368.000      9.52604e+00
369.000      8.85507e+00
370.000      8.24722e+00
371.000      7.71442e+00
372.000      7.26835e+00
373.000      6.92063e+00
374.000      6.68190e+00
375.000      6.55953e+00
376.000      6.55462e+00
377.000      6.65977e+00
378.000      6.85905e+00
379.000      7.13069e+00
380.000      7.45163e+00
381.000      7.80156e+00
382.000      8.16428e+00
383.000      8.52497e+00
384.000      8.86482e+00
385.000      9.15569e+00
386.000      9.35872e+00
387.000      9.42882e+00
388.000      9.32495e+00
389.000      9.02253e+00
390.000      8.52366e+00
391.000      7.86069e+00
392.000      7.09144e+00
393.000      6.28736e+00
394.000      5.51822e+00
395.000      4.83817e+00
396.000      4.27701e+00
397.000      3.83857e+00
398.000      3.50596e+00
399.000      3.25127e+00
400.000      3.04641e+00
401.000      2.87164e+00
402.000      2.71930e+00
403.000      2.59206e+00
404.000      2.49670e+00
405.000      2.43640e+00
406.000      2.40488e+00
407.000      2.38494e+00
408.000      2.35235e+00
409.000      2.28338e+00
410.000      2.16316e+00
411.000      1.99135e+00
412.000      1.78300e+00
413.000      1.56429e+00
414.000      1.36476e+00
415.000      1.20879e+00
416.000      1.10902e+00
417.000      1.06354e+00
418.000      1.05741e+00
419.000      1.06758e+00
420.000      1.06956e+00
421.000      1.04385e+00
422.000      9.80205e-01
423.000      8.79030e-01
424.000      7.49626e-01
425.000      6.06476e-01
426.000      4.64893e-01
427.000      3.37412e-01
428.000      2.31778e-01
429.000      1.50662e-01
430.000      9.26634e-02
431.000      5.39211e-02
432.000      2.96853e-02
433.000      1.54615e-02
434.000      7.61875e-03
435.000      3.55169e-03
436.000      1.56641e-03
437.000      6.53575e-04
438.000      2.57990e-04
439.000      9.63446e-05
440.000      3.40385e-05
441.000      1.13771e-05
442.000      3.59756e-06
443.000      1.07623e-06
444.000      3.04591e-07
445.000      8.15544e-08
446.000      2.06584e-08
447.000      4.95065e-09
448.000      1.12239e-09
449.000      2.40739e-10
450.000      4.88501e-11
451.000      9.37781e-12
452.000      1.70316e-12
453.000      2.92636e-13
454.000      4.75682e-14
455.000      7.31515e-15
456.000      1.06426e-15
457.000      1.46484e-16
458.000      1.90743e-17
459.000      2.34977e-18
460.000      2.73855e-19
461.000      3.01949e-20
462.000      3.14966e-21
463.000      3.10821e-22
464.000      2.90186e-23
465.000      2.56306e-24
466.000      2.14170e-25
467.000      1.69308e-26
468.000      1.26623e-27
469.000      8.95912e-29
470.000      5.99703e-30
471.000      3.79774e-31
472.000      2.27526e-32
473.000      1.28960e-33
474.000      6.91505e-35
475.000      3.50796e-36
476.000      1.68357e-37
477.000      7.64407e-39
478.000      3.28349e-40
479.000      1.33434e-41
480.000      5.12994e-43
481.000      1.86585e-44
482.000      6.42034e-46
483.000      2.09006e-47
484.000      6.43687e-49
485.000      1.87547e-50
486.000      5.16966e-52
487.000      1.34813e-53
488.000      3.32598e-55
489.000      7.76291e-57
490.000      1.71414e-58
491.000      3.58086e-60
492.000      7.07695e-62
493.000      1.32319e-63
494.000      2.34053e-65
495.000      3.91675e-67
496.000      6.20089e-69
497.000      9.28752e-71
498.000      1.31602e-72
499.000      1.76419e-74
500.000      2.23740e-76
