# Gaussian folded, width=10 cm^-1
# [cm^-1] arbitrary
0.000      3.00000e+00
1.000      2.91796e+00
2.000      2.68508e+00
3.000      2.33749e+00
4.000      1.92514e+00
5.000      1.50000e+00
6.000      1.10570e+00
7.000      7.71085e-01
8.000      5.08727e-01
9.000      3.17529e-01
10.000      1.87500e-01
11.000      1.04746e-01
12.000      5.53590e-02
13.000      2.76795e-02
14.000      1.30932e-02
15.000      5.85940e-03
16.000      2.48080e-03
17.000      9.93998e-04
18.000      3.77899e-04
19.000      1.39667e-04
20.000      6.07710e-05
21.000      6.00950e-05
22.000      1.34828e-04
23.000      3.56263e-04
24.000      9.17298e-04
25.000      2.24781e-03
26.000      5.23075e-03
27.000      1.15609e-02
28.000      2.42791e-02
29.000      4.84749e-02
30.000      9.20645e-02
31.000      1.66428e-01
32.000      2.86556e-01
33.000      4.70261e-01
34.000      7.36077e-01
35.000      1.09968e+00
36.000      1.56914e+00
37.000      2.13978e+00
38.000      2.79009e+00
39.000      3.47998e+00
40.000      4.15291e+00
41.000      4.74218e+00
42.000      5.18101e+00
43.000      5.41433e+00
44.000      5.40990e+00
45.000      5.16546e+00
46.000      4.71005e+00
47.000      4.09854e+00
48.000      3.40093e+00
49.000      2.68909e+00
50.000      2.02457e+00
51.000      1.45039e+00
52.000      9.88082e-01
53.000      6.39843e-01
54.000      3.93921e-01
55.000      2.31170e-01
56.000      1.30932e-01
57.000      7.52348e-02
58.000      5.11617e-02
59.000      5.17832e-02
60.000      7.62251e-02
61.000      1.29284e-01
62.000      2.20702e-01
63.000      3.63943e-01
64.000      5.74188e-01
65.000      8.65398e-01
66.000      1.24661e+00
67.000      1.71800e+00
68.000      2.26770e+00
69.000      2.87014e+00
70.000      3.48687e+00
71.000      4.06986e+00
72.000      4.56705e+00
73.000      4.92930e+00
74.000      5.11760e+00
75.000      5.10945e+00
76.000      4.90303e+00
77.000      4.51837e+00
78.000      3.99486e+00
79.000      3.38533e+00
80.000      2.74794e+00
81.000      2.13754e+00
82.000      1.59890e+00
83.000      1.16297e+00
84.000      8.46942e-01
85.000      6.57039e-01
86.000      5.92466e-01
87.000      6.48652e-01
88.000      8.18535e-01
89.000      1.09172e+00
90.000      1.45240e+00
91.000      1.87772e+00
92.000      2.33788e+00
93.000      2.79897e+00
94.000      3.22778e+00
95.000      3.59702e+00
96.000      3.88913e+00
97.000      4.09719e+00
98.000      4.22300e+00
99.000      4.27372e+00
100.000      4.25890e+00
101.000      4.18961e+00
102.000      4.07988e+00
103.000      3.94934e+00
104.000      3.82503e+00
105.000      3.74068e+00
106.000      3.73286e+00
107.000      3.83466e+00
108.000      4.06886e+00
109.000      4.44261e+00
110.000      4.94508e+00
111.000      5.54878e+00
112.000      6.21426e+00
113.000      6.89707e+00
114.000      7.55580e+00
115.000      8.15934e+00
116.000      8.69163e+00
117.000      9.15241e+00
118.000      9.55346e+00
119.000      9.91110e+00
120.000      1.02374e+01
121.000      1.05329e+01
122.000      1.07845e+01
123.000      1.09680e+01
124.000      1.10558e+01
125.000      1.10265e+01
126.000      1.08714e+01
127.000      1.05971e+01
128.000      1.02222e+01
129.000      9.77056e+00
130.000      9.26421e+00
131.000      8.71902e+00
132.000      8.14541e+00
133.000      7.55321e+00
134.000      6.95799e+00
135.000      6.38568e+00
136.000      5.87263e+00
137.000      5.46051e+00
138.000      5.18742e+00
139.000      5.07808e+00
140.000      5.13645e+00
141.000      5.34346e+00
142.000      5.66054e+00
143.000      6.03841e+00
144.000      6.42831e+00
145.000      6.79242e+00
146.000      7.11029e+00
147.000      7.37966e+00
148.000      7.61196e+00
149.000      7.82492e+00
150.000      8.03547e+00
151.000      8.25551e+00
152.000      8.49157e+00
153.000      8.74761e+00
154.000      9.02872e+00
155.000      9.34344e+00
156.000      9.70317e+00
157.000      1.01182e+01
158.000      1.05915e+01
159.000      1.11127e+01
160.000      1.16546e+01
161.000      1.21749e+01
162.000      1.26234e+01
163.000      1.29539e+01
164.000      1.31362e+01
165.000      1.31642e+01
166.000      1.30578e+01
167.000      1.28561e+01
168.000      1.26066e+01
169.000      1.23516e+01
170.000      1.21191e+01
171.000      1.19164e+01
172.000      1.17303e+01
173.000      1.15307e+01
174.000      1.12771e+01
175.000      1.09274e+01
176.000      1.04476e+01
177.000      9.82153e+00
178.000      9.05799e+00
179.000      8.19301e+00
180.000      7.28536e+00
181.000      6.40587e+00
182.000      5.62299e+00
183.000      4.98882e+00
184.000      4.52956e+00
185.000      4.24309e+00
186.000      4.10364e+00
187.000      4.07165e+00
188.000      4.10552e+00
189.000      4.17140e+00
190.000      4.24880e+00
191.000      4.33084e+00
192.000      4.41987e+00
193.000      4.52083e+00
194.000      4.63472e+00
195.000      4.75521e+00
196.000      4.86940e+00
197.000      4.96297e+00
198.000      5.02733e+00
199.000      5.06606e+00
200.000      5.09745e+00
201.000      5.15167e+00
202.000      5.26310e+00
203.000      5.46046e+00
204.000      5.75810e+00
205.000      6.15132e+00
206.000      6.61665e+00
207.000      7.11608e+00
208.000      7.60322e+00
209.000      8.02938e+00
210.000      8.34885e+00
211.000      8.52343e+00
212.000      8.52700e+00
213.000      8.34977e+00
214.000      8.00117e+00
215.000      7.50977e+00
216.000      6.91927e+00
217.000      6.28115e+00
218.000      5.64585e+00
219.000      5.05522e+00
220.000      4.53776e+00
221.000      4.10721e+00
222.000      3.76364e+00
223.000      3.49554e+00
224.000      3.28256e+00
225.000      3.09861e+00
226.000      2.91602e+00
227.000      2.71048e+00
228.000      2.46611e+00
229.000      2.17890e+00
230.000      1.85740e+00
231.000      1.51993e+00
232.000      1.18944e+00
233.000      8.87673e-01
234.000      6.30492e-01
235.000      4.25592e-01
236.000      2.72738e-01
237.000      1.65811e-01
238.000      9.55801e-02
239.000      5.22206e-02
240.000      2.70343e-02
241.000      1.32586e-02
242.000      6.15924e-03
243.000      2.70988e-03
244.000      1.12908e-03
245.000      4.45477e-04
246.000      1.66426e-04
247.000      5.88699e-05
248.000      1.97163e-05
249.000      6.25294e-06
250.000      1.88303e-06
251.000      5.60527e-07
252.000      2.52744e-07
253.000      4.51421e-07
254.000      1.49908e-06
255.000      5.06654e-06
256.000      1.62840e-05
257.000      4.95348e-05
258.000      1.42570e-04
259.000      3.88259e-04
260.000      1.00050e-03
261.000      2.43976e-03
262.000      5.63067e-03
263.000      1.23007e-02
264.000      2.54419e-02
265.000      4.98386e-02
266.000      9.25075e-02
267.000      1.62805e-01
268.000      2.71917e-01
269.000      4.31555e-01
270.000      6.51971e-01
271.000      9.39801e-01
272.000      1.29657e+00
273.000      1.71864e+00
274.000      2.19875e+00
275.000      2.72846e+00
276.000      3.29968e+00
277.000      3.90375e+00
278.000      4.52739e+00
279.000      5.14722e+00
280.000      5.72632e+00
281.000      6.21679e+00
282.000      6.57035e+00
283.000      6.75551e+00
284.000      6.77581e+00
285.000      6.68173e+00
286.000      6.56993e+00
287.000      6.56740e+00
288.000      6.80352e+00
289.000      7.37733e+00
290.000      8.32950e+00
291.000      9.62732e+00
292.000      1.11671e+01
293.000      1.27931e+01
294.000      1.43276e+01
295.000      1.56040e+01
296.000      1.64937e+01
297.000      1.69237e+01
298.000      1.68823e+01
299.000      1.64162e+01
300.000      1.56221e+01
301.000      1.46345e+01
302.000      1.36099e+01
303.000      1.27059e+01
304.000      1.20561e+01
305.000      1.17439e+01
306.000      1.17824e+01
307.000      1.21087e+01
308.000      1.25949e+01
309.000      1.30775e+01
310.000      1.33961e+01
311.000      1.34341e+01
312.000      1.31483e+01
313.000      1.25819e+01
314.000      1.18568e+01
315.000      1.11481e+01
316.000      1.06461e+01
317.000      1.05160e+01
318.000      1.08624e+01
319.000      1.17099e+01
320.000      1.30007e+01
321.000      1.46111e+01
322.000      1.63809e+01
323.000      1.81467e+01
324.000      1.97717e+01
325.000      2.11639e+01
326.000      2.22820e+01
327.000      2.31307e+01
328.000      2.37479e+01
329.000      2.41901e+01
330.000      2.45172e+01
331.000      2.47797e+01
332.000      2.50090e+01
333.000      2.52132e+01
334.000      2.53776e+01
335.000      2.54716e+01
336.000      2.54588e+01
337.000      2.53087e+01
338.000      2.50056e+01
339.000      2.45534e+01
340.000      2.39761e+01
341.000      2.33150e+01
342.000      2.26230e+01
343.000      2.19588e+01
344.000      2.13808e+01
345.000      2.09395e+01
346.000      2.06710e+01
347.000      2.05907e+01
348.000      2.06909e+01
349.000      2.09421e+01
350.000      2.13005e+01
351.000      2.17190e+01
352.000      2.21596e+01
353.000      2.26031e+01
354.000      2.30519e+01
355.000      2.35246e+01
356.000      2.40429e+01
357.000      2.46152e+01
358.000      2.52233e+01
359.000      2.58170e+01
360.000      2.63192e+01
361.000      2.66409e+01
362.000      2.67000e+01
363.000      2.64385e+01
364.000      2.58325e+01
365.000      2.48937e+01
366.000      2.36638e+01
367.000      2.22039e+01
368.000      2.05848e+01
369.000      1.88786e+01
370.000      1.71532e+01
371.000      1.54705e+01
372.000      1.38856e+01
373.000      1.24472e+01
374.000      1.11977e+01
375.000      1.01725e+01
376.000      9.39857e+00
377.000      8.89254e+00
378.000      8.66127e+00
379.000      8.70397e+00
380.000      9.01625e+00
381.000      9.59396e+00
382.000      1.04340e+01
383.000      1.15303e+01
384.000      1.28668e+01
385.000      1.44089e+01
386.000      1.61017e+01
387.000      1.78744e+01
388.000      1.96542e+01
389.000      2.13796e+01
390.000      2.30091e+01
391.000      2.45159e+01
392.000      2.58697e+01
393.000      2.70148e+01
394.000      2.78535e+01
395.000      2.82503e+01
396.000      2.80566e+01
397.000      2.71530e+01
398.000      2.54916e+01
399.000      2.31242e+01
400.000      2.02039e+01
401.000      1.69595e+01
402.000      1.36511e+01
403.000      1.05214e+01
404.000      7.75692e+00
405.000      5.46706e+00
406.000      3.68418e+00
407.000      2.37876e+00
408.000      1.48260e+00
409.000      9.12067e-01
410.000      5.86199e-01
411.000      4.37139e-01
412.000      4.13520e-01
413.000      4.78731e-01
414.000      6.06696e-01
415.000      7.77481e-01
416.000      9.74275e-01
417.000      1.18230e+00
418.000      1.38935e+00
419.000      1.58699e+00
420.000      1.77152e+00
421.000      1.94398e+00
422.000      2.10918e+00
423.000      2.27412e+00
424.000      2.44636e+00
425.000      2.63225e+00
426.000      2.83513e+00
427.000      3.05308e+00
428.000      3.27645e+00
429.000      3.48631e+00
430.000      3.65503e+00
431.000      3.75004e+00
432.000      3.74075e+00
433.000      3.60690e+00
434.000      3.34543e+00
435.000      2.97339e+00
436.000      2.52534e+00
437.000      2.04623e+00
438.000      1.58200e+00
439.000      1.17125e+00
440.000      8.40010e-01
441.000      6.00692e-01
442.000      4.54091e-01
443.000      3.92837e-01
444.000      4.04512e-01
445.000      4.73507e-01
446.000      5.81671e-01
447.000      7.08587e-01
448.000      8.32456e-01
449.000      9.32167e-01
450.000      9.90344e-01
451.000      9.96480e-01
452.000      9.48959e-01
453.000      8.55091e-01
454.000      7.28988e-01
455.000      5.87971e-01
456.000      4.48655e-01
457.000      3.23883e-01
458.000      2.21199e-01
459.000      1.42920e-01
460.000      8.73622e-02
461.000      5.05208e-02
462.000      2.76398e-02
463.000      1.43060e-02
464.000      7.00515e-03
465.000      3.24515e-03
466.000      1.42223e-03
467.000      5.89688e-04
468.000      2.31309e-04
469.000      8.58382e-05
470.000      3.01360e-05
471.000      1.00094e-05
472.000      3.14521e-06
473.000      9.34993e-07
474.000      2.62957e-07
475.000      6.99645e-08
476.000      1.76112e-08
477.000      4.19389e-09
478.000      9.44852e-10
479.000      2.01385e-10
480.000      4.06078e-11
481.000      7.74654e-12
482.000      1.39806e-12
483.000      2.38704e-13
484.000      3.85577e-14
485.000      5.89224e-15
486.000      8.51858e-16
487.000      1.16512e-16
488.000      1.50763e-17
489.000      1.84559e-18
490.000      2.13743e-19
491.000      2.34189e-20
492.000      2.42750e-21
493.000      2.38051e-22
494.000      2.20850e-23
495.000      1.93840e-24
496.000      1.60956e-25
497.000      1.26441e-26
498.000      9.39691e-28
499.000      6.60695e-29
500.000      4.39475e-30
