# Gaussian folded, width=10 cm^-1
# [cm^-1] arbitrary
0.000      3.00000e+00
1.000      2.91796e+00
2.000      2.68508e+00
3.000      2.33749e+00
4.000      1.92514e+00
5.000      1.50000e+00
6.000      1.10570e+00
7.000      7.71085e-01
8.000      5.08727e-01
9.000      3.17529e-01
10.000      1.87500e-01
11.000      1.04746e-01
12.000      5.53593e-02
13.000      2.76804e-02
14.000      1.30962e-02
15.000      5.86954e-03
16.000      2.51297e-03
17.000      1.09063e-03
18.000      6.52929e-04
19.000      8.81303e-04
20.000      1.95566e-03
21.000      4.64773e-03
22.000      1.06600e-02
23.000      2.32401e-02
24.000      4.80689e-02
25.000      9.43205e-02
26.000      1.75608e-01
27.000      3.10300e-01
28.000      5.20512e-01
29.000      8.29108e-01
30.000      1.25444e+00
31.000      1.80336e+00
32.000      2.46406e+00
33.000      3.20110e+00
34.000      3.95526e+00
35.000      4.64973e+00
36.000      5.20242e+00
37.000      5.54174e+00
38.000      5.62190e+00
39.000      5.43292e+00
40.000      5.00265e+00
41.000      4.39002e+00
42.000      3.67204e+00
43.000      2.92824e+00
44.000      2.22713e+00
45.000      1.61758e+00
46.000      1.12640e+00
47.000      7.61315e-01
48.000      5.17370e-01
49.000      3.84315e-01
50.000      3.52884e-01
51.000      4.18617e-01
52.000      5.82599e-01
53.000      8.49276e-01
54.000      1.22206e+00
55.000      1.69793e+00
56.000      2.26254e+00
57.000      2.88727e+00
58.000      3.52943e+00
59.000      4.13577e+00
60.000      4.64909e+00
61.000      5.01641e+00
62.000      5.19741e+00
63.000      5.17114e+00
64.000      4.93986e+00
65.000      4.52909e+00
66.000      3.98373e+00
67.000      3.36112e+00
68.000      2.72248e+00
69.000      2.12467e+00
70.000      1.61417e+00
71.000      1.22410e+00
72.000      9.74471e-01
73.000      8.74304e-01
74.000      9.24192e-01
75.000      1.11783e+00
76.000      1.44202e+00
77.000      1.87570e+00
78.000      2.38914e+00
79.000      2.94467e+00
80.000      3.49978e+00
81.000      4.01240e+00
82.000      4.44729e+00
83.000      4.78219e+00
84.000      5.01200e+00
85.000      5.15028e+00
86.000      5.22738e+00
87.000      5.28581e+00
88.000      5.37342e+00
89.000      5.53573e+00
90.000      5.80879e+00
91.000      6.21360e+00
92.000      6.75327e+00
93.000      7.41305e+00
94.000      8.16316e+00
95.000      8.96350e+00
96.000      9.76934e+00
97.000      1.05368e+01
98.000      1.12274e+01
99.000      1.18108e+01
100.000      1.22668e+01
101.000      1.25843e+01
102.000      1.27610e+01
103.000      1.28010e+01
104.000      1.27124e+01
105.000      1.25061e+01
106.000      1.21940e+01
107.000      1.17890e+01
108.000      1.13052e+01
109.000      1.07587e+01
110.000      1.01683e+01
111.000      9.55601e+00
112.000      8.94742e+00
113.000      8.37164e+00
114.000      7.86060e+00
115.000      7.44750e+00
116.000      7.16414e+00
117.000      7.03712e+00
118.000      7.08342e+00
119.000      7.30632e+00
120.000      7.69305e+00
121.000      8.21519e+00
122.000      8.83233e+00
123.000      9.49827e+00
124.000      1.01680e+01
125.000      1.08036e+01
126.000      1.13773e+01
127.000      1.18717e+01
128.000      1.22785e+01
129.000      1.25965e+01
130.000      1.28314e+01
131.000      1.29953e+01
132.000      1.31069e+01
133.000      1.31888e+01
134.000      1.32633e+01
135.000      1.33460e+01
136.000      1.34411e+01
137.000      1.35389e+01
138.000      1.36181e+01
139.000      1.36524e+01
140.000      1.36174e+01
141.000      1.34973e+01
142.000      1.32884e+01
143.000      1.29985e+01
144.000      1.26444e+01
145.000      1.22476e+01
146.000      1.18307e+01
147.000      1.14147e+01
148.000      1.10172e+01
149.000      1.06503e+01
150.000      1.03197e+01
151.000      1.00244e+01
152.000      9.75673e+00
153.000      9.50571e+00
154.000      9.26012e+00
155.000      9.01273e+00
156.000      8.76277e+00
157.000      8.51600e+00
158.000      8.28198e+00
159.000      8.06969e+00
160.000      7.88347e+00
161.000      7.72102e+00
162.000      7.57457e+00
163.000      7.43461e+00
164.000      7.29457e+00
165.000      7.15450e+00
166.000      7.02202e+00
167.000      6.91028e+00
168.000      6.83387e+00
169.000      6.80451e+00
170.000      6.82825e+00
171.000      6.90525e+00
172.000      7.03179e+00
173.000      7.20331e+00
174.000      7.41674e+00
175.000      7.67130e+00
176.000      7.96769e+00
177.000      8.30636e+00
178.000      8.68602e+00
179.000      9.10273e+00
180.000      9.54937e+00
181.000      1.00150e+01
182.000      1.04841e+01
183.000      1.09356e+01
184.000      1.13440e+01
185.000      1.16821e+01
186.000      1.19272e+01
187.000      1.20669e+01
188.000      1.21050e+01
189.000      1.20628e+01
190.000      1.19758e+01
191.000      1.18853e+01
192.000      1.18278e+01
193.000      1.18251e+01
194.000      1.18794e+01
195.000      1.19736e+01
196.000      1.20784e+01
197.000      1.21626e+01
198.000      1.22038e+01
199.000      1.21952e+01
200.000      1.21474e+01
201.000      1.20851e+01
202.000      1.20386e+01
203.000      1.20358e+01
204.000      1.20951e+01
205.000      1.22210e+01
206.000      1.24040e+01
207.000      1.26229e+01
208.000      1.28471e+01
209.000      1.30407e+01
210.000      1.31660e+01
211.000      1.31876e+01
212.000      1.30784e+01
213.000      1.28252e+01
214.000      1.24336e+01
215.000      1.19296e+01
216.000      1.13562e+01
217.000      1.07658e+01
218.000      1.02099e+01
219.000      9.73010e+00
220.000      9.35174e+00
221.000      9.08349e+00
222.000      8.92090e+00
223.000      8.85238e+00
224.000      8.86471e+00
225.000      8.94618e+00
226.000      9.08677e+00
227.000      9.27660e+00
228.000      9.50416e+00
229.000      9.75583e+00
230.000      1.00171e+01
231.000      1.02745e+01
232.000      1.05177e+01
233.000      1.07401e+01
234.000      1.09380e+01
235.000      1.11104e+01
236.000      1.12576e+01
237.000      1.13815e+01
238.000      1.14862e+01
239.000      1.15771e+01
240.000      1.16599e+01
241.000      1.17384e+01
242.000      1.18121e+01
243.000      1.18750e+01
244.000      1.19163e+01
245.000      1.19229e+01
246.000      1.18825e+01
247.000      1.17871e+01
248.000      1.16351e+01
249.000      1.14320e+01
250.000      1.11905e+01
251.000      1.09282e+01
252.000      1.06652e+01
253.000      1.04210e+01
254.000      1.02108e+01
255.000      1.00439e+01
256.000      9.92276e+00
257.000      9.84492e+00
258.000      9.80539e+00
259.000      9.79920e+00
260.000      9.82243e+00
261.000      9.87154e+00
262.000      9.94133e+00
263.000      1.00228e+01
264.000      1.01020e+01
265.000      1.01608e+01
266.000      1.01788e+01
267.000      1.01361e+01
268.000      1.00160e+01
269.000      9.80658e+00
270.000      9.50165e+00
271.000      9.10192e+00
272.000      8.61625e+00
273.000      8.06299e+00
274.000      7.47050e+00
275.000      6.87547e+00
276.000      6.31854e+00
277.000      5.83779e+00
278.000      5.46185e+00
279.000      5.20476e+00
280.000      5.06456e+00
281.000      5.02554e+00
282.000      5.06326e+00
283.000      5.15018e+00
284.000      5.26037e+00
285.000      5.37249e+00
286.000      5.47157e+00
287.000      5.55038e+00
288.000      5.61066e+00
289.000      5.66379e+00
290.000      5.72970e+00
291.000      5.83314e+00
292.000      5.99759e+00
293.000      6.23826e+00
294.000      6.55636e+00
295.000      6.93619e+00
296.000      7.34568e+00
297.000      7.73999e+00
298.000      8.06701e+00
299.000      8.27436e+00
300.000      8.31711e+00
301.000      8.16575e+00
302.000      7.81287e+00
303.000      7.27685e+00
304.000      6.60078e+00
305.000      5.84642e+00
306.000      5.08436e+00
307.000      4.38316e+00
308.000      3.80014e+00
309.000      3.37569e+00
310.000      3.13173e+00
311.000      3.07367e+00
312.000      3.19429e+00
313.000      3.47837e+00
314.000      3.90645e+00
315.000      4.45726e+00
316.000      5.10830e+00
317.000      5.83549e+00
318.000      6.61252e+00
319.000      7.41119e+00
320.000      8.20322e+00
321.000      8.96329e+00
322.000      9.67251e+00
323.000      1.03211e+01
324.000      1.09092e+01
325.000      1.14459e+01
326.000      1.19455e+01
327.000      1.24235e+01
328.000      1.28918e+01
329.000      1.33561e+01
330.000      1.38152e+01
331.000      1.42638e+01
332.000      1.46966e+01
333.000      1.51131e+01
334.000      1.55195e+01
335.000      1.59280e+01
336.000      1.63520e+01
337.000      1.68005e+01
338.000      1.72733e+01
339.000      1.77596e+01
340.000      1.82395e+01
341.000      1.86882e+01
342.000      1.90810e+01
343.000      1.93973e+01
344.000      1.96239e+01
345.000      1.97577e+01
346.000      1.98071e+01
347.000      1.97925e+01
348.000      1.97449e+01
349.000      1.97000e+01
350.000      1.96891e+01
351.000      1.97285e+01
352.000      1.98101e+01
353.000      1.98976e+01
354.000      1.99305e+01
355.000      1.98369e+01
356.000      1.95511e+01
357.000      1.90307e+01
358.000      1.82689e+01
359.000      1.72962e+01
360.000      1.61725e+01
361.000      1.49725e+01
362.000      1.37682e+01
363.000      1.26159e+01
364.000      1.15496e+01
365.000      1.05822e+01
366.000      9.71286e+00
367.000      8.93715e+00
368.000      8.25502e+00
369.000      7.67527e+00
370.000      7.21422e+00
371.000      6.88962e+00
372.000      6.71231e+00
373.000      6.67866e+00
374.000      6.76715e+00
375.000      6.94080e+00
376.000      7.15561e+00
377.000      7.37235e+00
378.000      7.56816e+00
379.000      7.74355e+00
380.000      7.92163e+00
381.000      8.13922e+00
382.000      8.43183e+00
383.000      8.81711e+00
384.000      9.28229e+00
385.000      9.77996e+00
386.000      1.02341e+01
387.000      1.05553e+01
388.000      1.06608e+01
389.000      1.04943e+01
390.000      1.00390e+01
391.000      9.32163e+00
392.000      8.40596e+00
393.000      7.37828e+00
394.000      6.32997e+00
395.000      5.34162e+00
396.000      4.47253e+00
397.000      3.75713e+00
398.000      3.20733e+00
399.000      2.81827e+00
400.000      2.57453e+00
401.000      2.45465e+00
402.000      2.43345e+00
403.000      2.48255e+00
404.000      2.57070e+00
405.000      2.66495e+00
406.000      2.73326e+00
407.000      2.74829e+00
408.000      2.69146e+00
409.000      2.55614e+00
410.000      2.34896e+00
411.000      2.08886e+00
412.000      1.80372e+00
413.000      1.52526e+00
414.000      1.28320e+00
415.000      1.09980e+00
416.000      9.85879e-01
417.000      9.39124e-01
418.000      9.45118e-01
419.000      9.80810e-01
420.000      1.01977e+00
421.000      1.03797e+00
422.000      1.01877e+00
423.000      9.55779e-01
424.000      8.52943e-01
425.000      7.22174e-01
426.000      5.79338e-01
427.000      4.40027e-01
428.000      3.16317e-01
429.000      2.15168e-01
430.000      1.38484e-01
431.000      8.43266e-02
432.000      4.85804e-02
433.000      2.64778e-02
434.000      1.36529e-02
435.000      6.66019e-03
436.000      3.07374e-03
437.000      1.34204e-03
438.000      5.54348e-04
439.000      2.16629e-04
440.000      8.00884e-05
441.000      2.80117e-05
442.000      9.26887e-06
443.000      2.90156e-06
444.000      8.59320e-07
445.000      2.40766e-07
446.000      6.38194e-08
447.000      1.60040e-08
448.000      3.79683e-09
449.000      8.52182e-10
450.000      1.80951e-10
451.000      3.63502e-11
452.000      6.90828e-12
453.000      1.24208e-12
454.000      2.11276e-13
455.000      3.39990e-14
456.000      5.17607e-15
457.000      7.45507e-16
458.000      1.01583e-16
459.000      1.30951e-17
460.000      1.59703e-18
461.000      1.84261e-19
462.000      2.01128e-20
463.000      2.07697e-21
464.000      2.02911e-22
465.000      1.87542e-23
466.000      1.63986e-24
467.000      1.35655e-25
468.000      1.06165e-26
469.000      7.86037e-28
470.000      5.50584e-29
471.000      3.64856e-30
472.000      2.28737e-31
473.000      1.35666e-32
474.000      7.61238e-34
475.000      4.04100e-35
476.000      2.02943e-36
477.000      9.64225e-38
478.000      4.33411e-39
479.000      1.84305e-40
480.000      7.41472e-42
481.000      2.82207e-43
482.000      1.01616e-44
483.000      3.46154e-46
484.000      1.11557e-47
485.000      3.40126e-49
486.000      9.81075e-51
487.000      2.67721e-52
488.000      6.91160e-54
489.000      1.68808e-55
490.000      3.90055e-57
491.000      8.52660e-59
492.000      1.76337e-60
493.000      3.45008e-62
494.000      6.38603e-64
495.000      1.11828e-65
496.000      1.85263e-67
497.000      2.90366e-69
498.000      4.30545e-71
499.000      6.03961e-73
500.000      8.01525e-75
