# Gaussian folded, width=10 cm^-1
# [cm^-1] arbitrary
0.000      3.00000e+00
1.000      2.91796e+00
2.000      2.68508e+00
3.000      2.33749e+00
4.000      1.92514e+00
5.000      1.50000e+00
6.000      1.10570e+00
7.000      7.71085e-01
8.000      5.08727e-01
9.000      3.17529e-01
10.000      1.87500e-01
11.000      1.04746e-01
12.000      5.53590e-02
13.000      2.76796e-02
14.000      1.30934e-02
15.000      5.86021e-03
16.000      2.48362e-03
17.000      1.00335e-03
18.000      4.07253e-04
19.000      2.26850e-04
20.000      3.05850e-04
21.000      7.12198e-04
22.000      1.77721e-03
23.000      4.27178e-03
24.000      9.75371e-03
25.000      2.11251e-02
26.000      4.34056e-02
27.000      8.46371e-02
28.000      1.56683e-01
29.000      2.75507e-01
30.000      4.60378e-01
31.000      7.31503e-01
32.000      1.10587e+00
33.000      1.59169e+00
34.000      2.18259e+00
35.000      2.85329e+00
36.000      3.55848e+00
37.000      4.23641e+00
38.000      4.81707e+00
39.000      5.23371e+00
40.000      5.43515e+00
41.000      5.39578e+00
42.000      5.12076e+00
43.000      4.64492e+00
44.000      4.02574e+00
45.000      3.33229e+00
46.000      2.63289e+00
47.000      1.98461e+00
48.000      1.42652e+00
49.000      9.77974e-01
50.000      6.41060e-01
51.000      4.06011e-01
52.000      2.57637e-01
53.000      1.81250e-01
54.000      1.67051e-01
55.000      2.12519e-01
56.000      3.22701e-01
57.000      5.08439e-01
58.000      7.82721e-01
59.000      1.15558e+00
60.000      1.62844e+00
61.000      2.18926e+00
62.000      2.81001e+00
63.000      3.44761e+00
64.000      4.04871e+00
65.000      4.55727e+00
66.000      4.92327e+00
67.000      5.11052e+00
68.000      5.10180e+00
69.000      4.90082e+00
70.000      4.53100e+00
71.000      4.03174e+00
72.000      3.45293e+00
73.000      2.84863e+00
74.000      2.27073e+00
75.000      1.76344e+00
76.000      1.35962e+00
77.000      1.07917e+00
78.000      9.29585e-01
79.000      9.08080e-01
80.000      1.00444e+00
81.000      1.20390e+00
82.000      1.48953e+00
83.000      1.84378e+00
84.000      2.24906e+00
85.000      2.68747e+00
86.000      3.13979e+00
87.000      3.58456e+00
88.000      3.99793e+00
89.000      4.35513e+00
90.000      4.63384e+00
91.000      4.81898e+00
92.000      4.90779e+00
93.000      4.91339e+00
94.000      4.86537e+00
95.000      4.80664e+00
96.000      4.78688e+00
97.000      4.85410e+00
98.000      5.04653e+00
99.000      5.38673e+00
100.000      5.87929e+00
101.000      6.51187e+00
102.000      7.25858e+00
103.000      8.08411e+00
104.000      8.94757e+00
105.000      9.80556e+00
106.000      1.06149e+01
107.000      1.13354e+01
108.000      1.19328e+01
109.000      1.23820e+01
110.000      1.26681e+01
111.000      1.27864e+01
112.000      1.27413e+01
113.000      1.25432e+01
114.000      1.22062e+01
115.000      1.17465e+01
116.000      1.11818e+01
117.000      1.05318e+01
118.000      9.81875e+00
119.000      9.06957e+00
120.000      8.31663e+00
121.000      7.59828e+00
122.000      6.95739e+00
123.000      6.43742e+00
124.000      6.07637e+00
125.000      5.89972e+00
126.000      5.91452e+00
127.000      6.10668e+00
128.000      6.44267e+00
129.000      6.87552e+00
130.000      7.35364e+00
131.000      7.83002e+00
132.000      8.26947e+00
133.000      8.65227e+00
134.000      8.97396e+00
135.000      9.24220e+00
136.000      9.47203e+00
137.000      9.68104e+00
138.000      9.88540e+00
139.000      1.00969e+01
140.000      1.03214e+01
141.000      1.05585e+01
142.000      1.08023e+01
143.000      1.10442e+01
144.000      1.12751e+01
145.000      1.14881e+01
146.000      1.16782e+01
147.000      1.18422e+01
148.000      1.19758e+01
149.000      1.20729e+01
150.000      1.21251e+01
151.000      1.21240e+01
152.000      1.20640e+01
153.000      1.19448e+01
154.000      1.17713e+01
155.000      1.15524e+01
156.000      1.12976e+01
157.000      1.10142e+01
158.000      1.07059e+01
159.000      1.03740e+01
160.000      1.00193e+01
161.000      9.64544e+00
162.000      9.26039e+00
163.000      8.87626e+00
164.000      8.50755e+00
165.000      8.16822e+00
166.000      7.86921e+00
167.000      7.61696e+00
168.000      7.41361e+00
169.000      7.25804e+00
170.000      7.14719e+00
171.000      7.07642e+00
172.000      7.03883e+00
173.000      7.02410e+00
174.000      7.01801e+00
175.000      7.00419e+00
176.000      6.96829e+00
177.000      6.90387e+00
178.000      6.81764e+00
179.000      6.73153e+00
180.000      6.67986e+00
181.000      6.70151e+00
182.000      6.82932e+00
183.000      7.08002e+00
184.000      7.44795e+00
185.000      7.90464e+00
186.000      8.40441e+00
187.000      8.89392e+00
188.000      9.32274e+00
189.000      9.65224e+00
190.000      9.86074e+00
191.000      9.94468e+00
192.000      9.91660e+00
193.000      9.80100e+00
194.000      9.62928e+00
195.000      9.43451e+00
196.000      9.24638e+00
197.000      9.08677e+00
198.000      8.96641e+00
199.000      8.88319e+00
200.000      8.82277e+00
201.000      8.76168e+00
202.000      8.67282e+00
203.000      8.53234e+00
204.000      8.32661e+00
205.000      8.05698e+00
206.000      7.74093e+00
207.000      7.40884e+00
208.000      7.09704e+00
209.000      6.83944e+00
210.000      6.66017e+00
211.000      6.56935e+00
212.000      6.56299e+00
213.000      6.62611e+00
214.000      6.73780e+00
215.000      6.87627e+00
216.000      7.02280e+00
217.000      7.16418e+00
218.000      7.29386e+00
219.000      7.41200e+00
220.000      7.52482e+00
221.000      7.64281e+00
222.000      7.77812e+00
223.000      7.94118e+00
224.000      8.13742e+00
225.000      8.36507e+00
226.000      8.61466e+00
227.000      8.87058e+00
228.000      9.11413e+00
229.000      9.32740e+00
230.000      9.49693e+00
231.000      9.61608e+00
232.000      9.68555e+00
233.000      9.71170e+00
234.000      9.70322e+00
235.000      9.66733e+00
236.000      9.60688e+00
237.000      9.51955e+00
238.000      9.39940e+00
239.000      9.24022e+00
240.000      9.03930e+00
241.000      8.80039e+00
242.000      8.53468e+00
243.000      8.25937e+00
244.000      7.99434e+00
245.000      7.75748e+00
246.000      7.56014e+00
247.000      7.40388e+00
248.000      7.27957e+00
249.000      7.16944e+00
250.000      7.05151e+00
251.000      6.90512e+00
252.000      6.71593e+00
253.000      6.47847e+00
254.000      6.19587e+00
255.000      5.87686e+00
256.000      5.53201e+00
257.000      5.17093e+00
258.000      4.80201e+00
259.000      4.43457e+00
260.000      4.08220e+00
261.000      3.76476e+00
262.000      3.50753e+00
263.000      3.33653e+00
264.000      3.27154e+00
265.000      3.31907e+00
266.000      3.46778e+00
267.000      3.68815e+00
268.000      3.93639e+00
269.000      4.16150e+00
270.000      4.31377e+00
271.000      4.35302e+00
272.000      4.25524e+00
273.000      4.01681e+00
274.000      3.65559e+00
275.000      3.20865e+00
276.000      2.72700e+00
277.000      2.26824e+00
278.000      1.88861e+00
279.000      1.63606e+00
280.000      1.54510e+00
281.000      1.63398e+00
282.000      1.90383e+00
283.000      2.33937e+00
284.000      2.91115e+00
285.000      3.57919e+00
286.000      4.29799e+00
287.000      5.02238e+00
288.000      5.71339e+00
289.000      6.34291e+00
290.000      6.89609e+00
291.000      7.37124e+00
292.000      7.77711e+00
293.000      8.12860e+00
294.000      8.44188e+00
295.000      8.73035e+00
296.000      9.00231e+00
297.000      9.26084e+00
298.000      9.50543e+00
299.000      9.73447e+00
300.000      9.94701e+00
301.000      1.01431e+01
302.000      1.03223e+01
303.000      1.04815e+01
304.000      1.06134e+01
305.000      1.07064e+01
306.000      1.07470e+01
307.000      1.07241e+01
308.000      1.06327e+01
309.000      1.04769e+01
310.000      1.02700e+01
311.000      1.00335e+01
312.000      9.79405e+00
313.000      9.58118e+00
314.000      9.42580e+00
315.000      9.35894e+00
316.000      9.41029e+00
317.000      9.60557e+00
318.000      9.96267e+00
319.000      1.04876e+01
320.000      1.11716e+01
321.000      1.19910e+01
322.000      1.29102e+01
323.000      1.38863e+01
324.000      1.48755e+01
325.000      1.58375e+01
326.000      1.67395e+01
327.000      1.75566e+01
328.000      1.82722e+01
329.000      1.88777e+01
330.000      1.93716e+01
331.000      1.97589e+01
332.000      2.00506e+01
333.000      2.02614e+01
334.000      2.04080e+01
335.000      2.05064e+01
336.000      2.05709e+01
337.000      2.06127e+01
338.000      2.06402e+01
339.000      2.06594e+01
340.000      2.06751e+01
341.000      2.06919e+01
342.000      2.07159e+01
343.000      2.07569e+01
344.000      2.08288e+01
345.000      2.09490e+01
346.000      2.11356e+01
347.000      2.14034e+01
348.000      2.17587e+01
349.000      2.21959e+01
350.000      2.26963e+01
351.000      2.32296e+01
352.000      2.37571e+01
353.000      2.42353e+01
354.000      2.46200e+01
355.000      2.48687e+01
356.000      2.49418e+01
357.000      2.48051e+01
358.000      2.44323e+01
359.000      2.38100e+01
360.000      2.29424e+01
361.000      2.18559e+01
362.000      2.05993e+01
363.000      1.92386e+01
364.000      1.78468e+01
365.000      1.64892e+01
366.000      1.52116e+01
367.000      1.40339e+01
368.000      1.29522e+01
369.000      1.19494e+01
370.000      1.10092e+01
371.000      1.01291e+01
372.000      9.32561e+00
373.000      8.63102e+00
374.000      8.08364e+00
375.000      7.71527e+00
376.000      7.54211e+00
377.000      7.56264e+00
378.000      7.76305e+00
379.000      8.12733e+00
380.000      8.64708e+00
381.000      9.32625e+00
382.000      1.01780e+01
383.000      1.12148e+01
384.000      1.24341e+01
385.000      1.38066e+01
386.000      1.52686e+01
387.000      1.67226e+01
388.000      1.80449e+01
389.000      1.90993e+01
390.000      1.97543e+01
391.000      1.99020e+01
392.000      1.94766e+01
393.000      1.84693e+01
394.000      1.69357e+01
395.000      1.49929e+01
396.000      1.28038e+01
397.000      1.05529e+01
398.000      8.41694e+00
399.000      6.53815e+00
400.000      5.00698e+00
401.000      3.85628e+00
402.000      3.06735e+00
403.000      2.58431e+00
404.000      2.33195e+00
405.000      2.23257e+00
406.000      2.21877e+00
407.000      2.24061e+00
408.000      2.26745e+00
409.000      2.28569e+00
410.000      2.29404e+00
411.000      2.29820e+00
412.000      2.30627e+00
413.000      2.32562e+00
414.000      2.36134e+00
415.000      2.41566e+00
416.000      2.48774e+00
417.000      2.57317e+00
418.000      2.66322e+00
419.000      2.74438e+00
420.000      2.79888e+00
421.000      2.80703e+00
422.000      2.75122e+00
423.000      2.62081e+00
424.000      2.41637e+00
425.000      2.15146e+00
426.000      1.85137e+00
427.000      1.54848e+00
428.000      1.27589e+00
429.000      1.06075e+00
430.000      9.19147e-01
431.000      8.53476e-01
432.000      8.52800e-01
433.000      8.95725e-01
434.000      9.55197e-01
435.000      1.00417e+00
436.000      1.02098e+00
437.000      9.93226e-01
438.000      9.19272e-01
439.000      8.07178e-01
440.000      6.71441e-01
441.000      5.28758e-01
442.000      3.94065e-01
443.000      2.77886e-01
444.000      1.85403e-01
445.000      1.17032e-01
446.000      6.98899e-02
447.000      3.94864e-02
448.000      2.11058e-02
449.000      1.06727e-02
450.000      5.10578e-03
451.000      2.31084e-03
452.000      9.89453e-04
453.000      4.00810e-04
454.000      1.53603e-04
455.000      5.56900e-05
456.000      1.91017e-05
457.000      6.19849e-06
458.000      1.90290e-06
459.000      5.52670e-07
460.000      1.51856e-07
461.000      3.94744e-08
462.000      9.70771e-09
463.000      2.25858e-09
464.000      4.97133e-10
465.000      1.03521e-10
466.000      2.03938e-11
467.000      3.80091e-12
468.000      6.70185e-13
469.000      1.11794e-13
470.000      1.76426e-14
471.000      2.63403e-15
472.000      3.72048e-16
473.000      4.97157e-17
474.000      6.28502e-18
475.000      7.51686e-19
476.000      8.50520e-20
477.000      9.10437e-21
478.000      9.22004e-22
479.000      8.83351e-23
480.000      8.00666e-24
481.000      6.86574e-25
482.000      5.56981e-26
483.000      4.27476e-27
484.000      3.10385e-28
485.000      2.13209e-29
486.000      1.38558e-30
487.000      8.51867e-32
488.000      4.95485e-33
489.000      2.72651e-34
490.000      1.41939e-35
491.000      6.99058e-37
492.000      3.25719e-38
493.000      1.43579e-39
494.000      5.98762e-41
495.000      2.36231e-42
496.000      8.81731e-44
497.000      3.11353e-45
498.000      1.04013e-46
499.000      3.28731e-48
500.000      9.82905e-50
