# Gaussian folded, width=10 cm^-1
# [cm^-1] arbitrary
0.000      3.00000e+00
1.000      2.91796e+00
2.000      2.68508e+00
3.000      2.33749e+00
4.000      1.92514e+00
5.000      1.50000e+00
6.000      1.10570e+00
7.000      7.71085e-01
8.000      5.08727e-01
9.000      3.17529e-01
10.000      1.87500e-01
11.000      1.04746e-01
12.000      5.53590e-02
13.000      2.76795e-02
14.000      1.30932e-02
15.000      5.85939e-03
16.000      2.48076e-03
17.000      9.93829e-04
18.000      3.77327e-04
19.000      1.37836e-04
20.000      5.52402e-05
21.000      4.43421e-05
22.000      9.25289e-05
23.000      2.49238e-04
24.000      6.62298e-04
25.000      1.67613e-03
26.000      4.02603e-03
27.000      9.17762e-03
28.000      1.98609e-02
29.000      4.08174e-02
30.000      7.96976e-02
31.000      1.47907e-01
32.000      2.61021e-01
33.000      4.38246e-01
34.000      7.00372e-01
35.000      1.06591e+00
36.000      1.54562e+00
37.000      2.13630e+00
38.000      2.81561e+00
39.000      3.53978e+00
40.000      4.24596e+00
41.000      4.86001e+00
42.000      5.30859e+00
43.000      5.53319e+00
44.000      5.50246e+00
45.000      5.21931e+00
46.000      4.72063e+00
47.000      4.06955e+00
48.000      3.34242e+00
49.000      2.61420e+00
50.000      1.94614e+00
51.000      1.37834e+00
52.000      9.28312e-01
53.000      5.94346e-01
54.000      3.61759e-01
55.000      2.09703e-01
56.000      1.16851e-01
57.000      6.51754e-02
58.000      4.19013e-02
59.000      4.01679e-02
60.000      5.90490e-02
61.000      1.03352e-01
62.000      1.83265e-01
63.000      3.13578e-01
64.000      5.12004e-01
65.000      7.96223e-01
66.000      1.17959e+00
67.000      1.66603e+00
68.000      2.24535e+00
69.000      2.89028e+00
70.000      3.55672e+00
71.000      4.18785e+00
72.000      4.72168e+00
73.000      5.10075e+00
74.000      5.28193e+00
75.000      5.24410e+00
76.000      4.99210e+00
77.000      4.55601e+00
78.000      3.98596e+00
79.000      3.34374e+00
80.000      2.69310e+00
81.000      2.09079e+00
82.000      1.58019e+00
83.000      1.18827e+00
84.000      9.25883e-01
85.000      7.90436e-01
86.000      7.69792e-01
87.000      8.46430e-01
88.000      1.00125e+00
89.000      1.21674e+00
90.000      1.47919e+00
91.000      1.77953e+00
92.000      2.11243e+00
93.000      2.47357e+00
94.000      2.85584e+00
95.000      3.24584e+00
96.000      3.62230e+00
97.000      3.95748e+00
98.000      4.22150e+00
99.000      4.38876e+00
100.000      4.44450e+00
101.000      4.38984e+00
102.000      4.24404e+00
103.000      4.04336e+00
104.000      3.83666e+00
105.000      3.67848e+00
106.000      3.62070e+00
107.000      3.70427e+00
108.000      3.95274e+00
109.000      4.36881e+00
110.000      4.93450e+00
111.000      5.61502e+00
112.000      6.36493e+00
113.000      7.13558e+00
114.000      7.88185e+00
115.000      8.56728e+00
116.000      9.16653e+00
117.000      9.66525e+00
118.000      1.00580e+01
119.000      1.03450e+01
120.000      1.05297e+01
121.000      1.06172e+01
122.000      1.06138e+01
123.000      1.05273e+01
124.000      1.03678e+01
125.000      1.01472e+01
126.000      9.87860e+00
127.000      9.57517e+00
128.000      9.24942e+00
129.000      8.91251e+00
130.000      8.57365e+00
131.000      8.23931e+00
132.000      7.91259e+00
133.000      7.59331e+00
134.000      7.27950e+00
135.000      6.97030e+00
136.000      6.66941e+00
137.000      6.38782e+00
138.000      6.14423e+00
139.000      5.96248e+00
140.000      5.86622e+00
141.000      5.87214e+00
142.000      5.98395e+00
143.000      6.18888e+00
144.000      6.45846e+00
145.000      6.75345e+00
146.000      7.03221e+00
147.000      7.26001e+00
148.000      7.41699e+00
149.000      7.50261e+00
150.000      7.53562e+00
151.000      7.55002e+00
152.000      7.58846e+00
153.000      7.69493e+00
154.000      7.90818e+00
155.000      8.25657e+00
156.000      8.75420e+00
157.000      9.39799e+00
158.000      1.01656e+01
159.000      1.10146e+01
160.000      1.18846e+01
161.000      1.27033e+01
162.000      1.33962e+01
163.000      1.39000e+01
164.000      1.41751e+01
165.000      1.42144e+01
166.000      1.40445e+01
167.000      1.37194e+01
168.000      1.33068e+01
169.000      1.28726e+01
170.000      1.24659e+01
171.000      1.21100e+01
172.000      1.18000e+01
173.000      1.15065e+01
174.000      1.11851e+01
175.000      1.07880e+01
176.000      1.02758e+01
177.000      9.62765e+00
178.000      8.84716e+00
179.000      7.96308e+00
180.000      7.02467e+00
181.000      6.09279e+00
182.000      5.22891e+00
183.000      4.48495e+00
184.000      3.89635e+00
185.000      3.47953e+00
186.000      3.23350e+00
187.000      3.14408e+00
188.000      3.18903e+00
189.000      3.34252e+00
190.000      3.57841e+00
191.000      3.87223e+00
192.000      4.20224e+00
193.000      4.54974e+00
194.000      4.89884e+00
195.000      5.23591e+00
196.000      5.54897e+00
197.000      5.82784e+00
198.000      6.06500e+00
199.000      6.25734e+00
200.000      6.40782e+00
201.000      6.52618e+00
202.000      6.62788e+00
203.000      6.73120e+00
204.000      6.85312e+00
205.000      7.00506e+00
206.000      7.18946e+00
207.000      7.39788e+00
208.000      7.61094e+00
209.000      7.80016e+00
210.000      7.93175e+00
211.000      7.97208e+00
212.000      7.89418e+00
213.000      7.68396e+00
214.000      7.34446e+00
215.000      6.89673e+00
216.000      6.37674e+00
217.000      5.82897e+00
218.000      5.29824e+00
219.000      4.82175e+00
220.000      4.42294e+00
221.000      4.10823e+00
222.000      3.86714e+00
223.000      3.67542e+00
224.000      3.50096e+00
225.000      3.31110e+00
226.000      3.08000e+00
227.000      2.79431e+00
228.000      2.45563e+00
229.000      2.07921e+00
230.000      1.68938e+00
231.000      1.31322e+00
232.000      9.74416e-01
233.000      6.88984e-01
234.000      4.63623e-01
235.000      2.96605e-01
236.000      1.80264e-01
237.000      1.04013e-01
238.000      5.69502e-02
239.000      2.95776e-02
240.000      1.45663e-02
241.000      6.80035e-03
242.000      3.00896e-03
243.000      1.26160e-03
244.000      5.01160e-04
245.000      1.88592e-04
246.000      6.72219e-05
247.000      2.26932e-05
248.000      7.25526e-06
249.000      2.19768e-06
250.000      6.35563e-07
251.000      1.96272e-07
252.000      1.46087e-07
253.000      3.99629e-07
254.000      1.40319e-06
255.000      4.77313e-06
256.000      1.53851e-05
257.000      4.69232e-05
258.000      1.35406e-04
259.000      3.69714e-04
260.000      9.55194e-04
261.000      2.33533e-03
262.000      5.40360e-03
263.000      1.18348e-02
264.000      2.45402e-02
265.000      4.81917e-02
266.000      8.96678e-02
267.000      1.58178e-01
268.000      2.64786e-01
269.000      4.21142e-01
270.000      6.37529e-01
271.000      9.20726e-01
272.000      1.27251e+00
273.000      1.68957e+00
274.000      2.16511e+00
275.000      2.69127e+00
276.000      3.26070e+00
277.000      3.86561e+00
278.000      4.49357e+00
279.000      5.12170e+00
280.000      5.71278e+00
281.000      6.21751e+00
282.000      6.58514e+00
283.000      6.78110e+00
284.000      6.80602e+00
285.000      6.70856e+00
286.000      6.58532e+00
287.000      6.56516e+00
288.000      6.78081e+00
289.000      7.33536e+00
290.000      8.27330e+00
291.000      9.56468e+00
292.000      1.11070e+01
293.000      1.27443e+01
294.000      1.42970e+01
295.000      1.55957e+01
296.000      1.65084e+01
297.000      1.69583e+01
298.000      1.69299e+01
299.000      1.64664e+01
300.000      1.56619e+01
301.000      1.46496e+01
302.000      1.35872e+01
303.000      1.26363e+01
304.000      1.19373e+01
305.000      1.15824e+01
306.000      1.15942e+01
307.000      1.19167e+01
308.000      1.24250e+01
309.000      1.29524e+01
310.000      1.33304e+01
311.000      1.34310e+01
312.000      1.32002e+01
313.000      1.26742e+01
314.000      1.19741e+01
315.000      1.12798e+01
316.000      1.07904e+01
317.000      1.06791e+01
318.000      1.10550e+01
319.000      1.19396e+01
320.000      1.32643e+01
321.000      1.48901e+01
322.000      1.66417e+01
323.000      1.83481e+01
324.000      1.98779e+01
325.000      2.11593e+01
326.000      2.21819e+01
327.000      2.29821e+01
328.000      2.36193e+01
329.000      2.41516e+01
330.000      2.46177e+01
331.000      2.50290e+01
332.000      2.53714e+01
333.000      2.56141e+01
334.000      2.57214e+01
335.000      2.56637e+01
336.000      2.54265e+01
337.000      2.50151e+01
338.000      2.44561e+01
339.000      2.37952e+01
340.000      2.30925e+01
341.000      2.24149e+01
342.000      2.18275e+01
343.000      2.13842e+01
344.000      2.11196e+01
345.000      2.10431e+01
346.000      2.11381e+01
347.000      2.13662e+01
348.000      2.16758e+01
349.000      2.20145e+01
350.000      2.23412e+01
351.000      2.26340e+01
352.000      2.28945e+01
353.000      2.31437e+01
354.000      2.34150e+01
355.000      2.37418e+01
356.000      2.41455e+01
357.000      2.46244e+01
358.000      2.51480e+01
359.000      2.56572e+01
360.000      2.60727e+01
361.000      2.63089e+01
362.000      2.62905e+01
363.000      2.59666e+01
364.000      2.53198e+01
365.000      2.43665e+01
366.000      2.31509e+01
367.000      2.17341e+01
368.000      2.01827e+01
369.000      1.85594e+01
370.000      1.69187e+01
371.000      1.53076e+01
372.000      1.37692e+01
373.000      1.23469e+01
374.000      1.10863e+01
375.000      1.00327e+01
376.000      9.22586e+00
377.000      8.69375e+00
378.000      8.44880e+00
379.000      8.48929e+00
380.000      8.80522e+00
381.000      9.38572e+00
382.000      1.02237e+01
383.000      1.13142e+01
384.000      1.26462e+01
385.000      1.41925e+01
386.000      1.59028e+01
387.000      1.77073e+01
388.000      1.95292e+01
389.000      2.13009e+01
390.000      2.29755e+01
391.000      2.45242e+01
392.000      2.59187e+01
393.000      2.71064e+01
394.000      2.79929e+01
395.000      2.84425e+01
396.000      2.83032e+01
397.000      2.74495e+01
398.000      2.58270e+01
399.000      2.34818e+01
400.000      2.05643e+01
401.000      1.73032e+01
402.000      1.39616e+01
403.000      1.07872e+01
404.000      7.97195e+00
405.000      5.63068e+00
406.000      3.79947e+00
407.000      2.45057e+00
408.000      1.51546e+00
409.000      9.08665e-01
410.000      5.46679e-01
411.000      3.59565e-01
412.000      2.95388e-01
413.000      3.19220e-01
414.000      4.09027e-01
415.000      5.50608e-01
416.000      7.33237e-01
417.000      9.46969e-01
418.000      1.18191e+00
419.000      1.42905e+00
420.000      1.68170e+00
421.000      1.93668e+00
422.000      2.19422e+00
423.000      2.45657e+00
424.000      2.72558e+00
425.000      2.99993e+00
426.000      3.27287e+00
427.000      3.53104e+00
428.000      3.75465e+00
429.000      3.91939e+00
430.000      3.99993e+00
431.000      3.97467e+00
432.000      3.83091e+00
433.000      3.56900e+00
434.000      3.20416e+00
435.000      2.76502e+00
436.000      2.28906e+00
437.000      1.81612e+00
438.000      1.38196e+00
439.000      1.01343e+00
440.000      7.26456e-01
441.000      5.26649e-01
442.000      4.11577e-01
443.000      3.73401e-01
444.000      4.00774e-01
445.000      4.79610e-01
446.000      5.93087e-01
447.000      7.21720e-01
448.000      8.44364e-01
449.000      9.40525e-01
450.000      9.93585e-01
451.000      9.93977e-01
452.000      9.41084e-01
453.000      8.43065e-01
454.000      7.14556e-01
455.000      5.72980e-01
456.000      4.34674e-01
457.000      3.11965e-01
458.000      2.11820e-01
459.000      1.36065e-01
460.000      8.26882e-02
461.000      4.75399e-02
462.000      2.58577e-02
463.000      1.33058e-02
464.000      6.47750e-03
465.000      2.98327e-03
466.000      1.29985e-03
467.000      5.35815e-04
468.000      2.08955e-04
469.000      7.70918e-05
470.000      2.69080e-05
471.000      8.88529e-06
472.000      2.77575e-06
473.000      8.20362e-07
474.000      2.29376e-07
475.000      6.06750e-08
476.000      1.51841e-08
477.000      3.59488e-09
478.000      8.05190e-10
479.000      1.70620e-10
480.000      3.42041e-11
481.000      6.48702e-12
482.000      1.16394e-12
483.000      1.97574e-13
484.000      3.17285e-14
485.000      4.82044e-15
486.000      6.92854e-16
487.000      9.42136e-17
488.000      1.21200e-17
489.000      1.47506e-18
490.000      1.69838e-19
491.000      1.85003e-20
492.000      1.90651e-21
493.000      1.85873e-22
494.000      1.71440e-23
495.000      1.49598e-24
496.000      1.23497e-25
497.000      9.64502e-27
498.000      7.12638e-28
499.000      4.98141e-29
500.000      3.29422e-30
