# Gaussian folded, width=10 cm^-1
# [cm^-1] arbitrary
0.000      3.00000e+00
1.000      2.91796e+00
2.000      2.68508e+00
3.000      2.33749e+00
4.000      1.92514e+00
5.000      1.50000e+00
6.000      1.10570e+00
7.000      7.71085e-01
8.000      5.08727e-01
9.000      3.17529e-01
10.000      1.87500e-01
11.000      1.04746e-01
12.000      5.53590e-02
13.000      2.76795e-02
14.000      1.30932e-02
15.000      5.85938e-03
16.000      2.48074e-03
17.000      9.93759e-04
18.000      3.77077e-04
19.000      1.36999e-04
20.000      5.25915e-05
21.000      3.64270e-05
22.000      7.02184e-05
23.000      1.89953e-04
24.000      5.13897e-04
25.000      1.32650e-03
26.000      3.25163e-03
27.000      7.56742e-03
28.000      1.67237e-02
29.000      3.51040e-02
30.000      7.00048e-02
31.000      1.32663e-01
32.000      2.38958e-01
33.000      4.09203e-01
34.000      6.66324e-01
35.000      1.03191e+00
36.000      1.52010e+00
37.000      2.13026e+00
38.000      2.84035e+00
39.000      3.60344e+00
40.000      4.34999e+00
41.000      4.99679e+00
42.000      5.46158e+00
43.000      5.68007e+00
44.000      5.62043e+00
45.000      5.29088e+00
46.000      4.73788e+00
47.000      4.03539e+00
48.000      3.26872e+00
49.000      2.51765e+00
50.000      1.84363e+00
51.000      1.28336e+00
52.000      8.49107e-01
53.000      5.33947e-01
54.000      3.19262e-01
55.000      1.81985e-01
56.000      1.00104e-01
57.000      5.59461e-02
58.000      3.75985e-02
59.000      3.91708e-02
60.000      6.05836e-02
61.000      1.07260e-01
62.000      1.89719e-01
63.000      3.22766e-01
64.000      5.23784e-01
65.000      8.09799e-01
66.000      1.19330e+00
67.000      1.67738e+00
68.000      2.25134e+00
69.000      2.88809e+00
70.000      3.54453e+00
71.000      4.16558e+00
72.000      4.69134e+00
73.000      5.06620e+00
74.000      5.24805e+00
75.000      5.21557e+00
76.000      4.97220e+00
77.000      4.54568e+00
78.000      3.98341e+00
79.000      3.34457e+00
80.000      2.69075e+00
81.000      2.07718e+00
82.000      1.54654e+00
83.000      1.12624e+00
84.000      8.29226e-01
85.000      6.57325e-01
86.000      6.05394e-01
87.000      6.65007e-01
88.000      8.26683e-01
89.000      1.08052e+00
90.000      1.41563e+00
91.000      1.81897e+00
92.000      2.27411e+00
93.000      2.76036e+00
94.000      3.25234e+00
95.000      3.72054e+00
96.000      4.13296e+00
97.000      4.45833e+00
98.000      4.67057e+00
99.000      4.75411e+00
100.000      4.70880e+00
101.000      4.55304e+00
102.000      4.32383e+00
103.000      4.07297e+00
104.000      3.85943e+00
105.000      3.73917e+00
106.000      3.75452e+00
107.000      3.92585e+00
108.000      4.24808e+00
109.000      4.69321e+00
110.000      5.21857e+00
111.000      5.77809e+00
112.000      6.33332e+00
113.000      6.86070e+00
114.000      7.35313e+00
115.000      7.81602e+00
116.000      8.25978e+00
117.000      8.69184e+00
118.000      9.11073e+00
119.000      9.50390e+00
120.000      9.84927e+00
121.000      1.01197e+01
122.000      1.02894e+01
123.000      1.03398e+01
124.000      1.02658e+01
125.000      1.00781e+01
126.000      9.80218e+00
127.000      9.47341e+00
128.000      9.12817e+00
129.000      8.79466e+00
130.000      8.48635e+00
131.000      8.20091e+00
132.000      7.92539e+00
133.000      7.64566e+00
134.000      7.35636e+00
135.000      7.06700e+00
136.000      6.80148e+00
137.000      6.59116e+00
138.000      6.46411e+00
139.000      6.43498e+00
140.000      6.49943e+00
141.000      6.63520e+00
142.000      6.80897e+00
143.000      6.98600e+00
144.000      7.13876e+00
145.000      7.25182e+00
146.000      7.32227e+00
147.000      7.35703e+00
148.000      7.36922e+00
149.000      7.37538e+00
150.000      7.39410e+00
151.000      7.44539e+00
152.000      7.54981e+00
153.000      7.72656e+00
154.000      7.99080e+00
155.000      8.35075e+00
156.000      8.80569e+00
157.000      9.34520e+00
158.000      9.94988e+00
159.000      1.05931e+01
160.000      1.12436e+01
161.000      1.18684e+01
162.000      1.24361e+01
163.000      1.29197e+01
164.000      1.32988e+01
165.000      1.35608e+01
166.000      1.37011e+01
167.000      1.37219e+01
168.000      1.36307e+01
169.000      1.34384e+01
170.000      1.31571e+01
171.000      1.27982e+01
172.000      1.23708e+01
173.000      1.18807e+01
174.000      1.13299e+01
175.000      1.07178e+01
176.000      1.00426e+01
177.000      9.30454e+00
178.000      8.50872e+00
179.000      7.66828e+00
180.000      6.80600e+00
181.000      5.95377e+00
182.000      5.14927e+00
183.000      4.43054e+00
184.000      3.82992e+00
185.000      3.36916e+00
186.000      3.05714e+00
187.000      2.89051e+00
188.000      2.85671e+00
189.000      2.93818e+00
190.000      3.11646e+00
191.000      3.37562e+00
192.000      3.70413e+00
193.000      4.09494e+00
194.000      4.54349e+00
195.000      5.04407e+00
196.000      5.58562e+00
197.000      6.14860e+00
198.000      6.70477e+00
199.000      7.22058e+00
200.000      7.66360e+00
201.000      8.00991e+00
202.000      8.24962e+00
203.000      8.38829e+00
204.000      8.44336e+00
205.000      8.43674e+00
206.000      8.38633e+00
207.000      8.29962e+00
208.000      8.17184e+00
209.000      7.98939e+00
210.000      7.73716e+00
211.000      7.40717e+00
212.000      7.00499e+00
213.000      6.55198e+00
214.000      6.08214e+00
215.000      5.63488e+00
216.000      5.24592e+00
217.000      4.93892e+00
218.000      4.72033e+00
219.000      4.57840e+00
220.000      4.48632e+00
221.000      4.40832e+00
222.000      4.30707e+00
223.000      4.15082e+00
224.000      3.91892e+00
225.000      3.60490e+00
226.000      3.21680e+00
227.000      2.77490e+00
228.000      2.30742e+00
229.000      1.84510e+00
230.000      1.41589e+00
231.000      1.04082e+00
232.000      7.31756e-01
233.000      4.91352e-01
234.000      3.14717e-01
235.000      1.92080e-01
236.000      1.11600e-01
237.000      6.16757e-02
238.000      3.23981e-02
239.000      1.61665e-02
240.000      7.65896e-03
241.000      3.44336e-03
242.000      1.46852e-03
243.000      5.93904e-04
244.000      2.27699e-04
245.000      8.27378e-05
246.000      2.84871e-05
247.000      9.29203e-06
248.000      2.87112e-06
249.000      8.41206e-07
250.000      2.38021e-07
251.000      8.35373e-08
252.000      1.06020e-07
253.000      3.51086e-07
254.000      1.25842e-06
255.000      4.30602e-06
256.000      1.39477e-05
257.000      4.27457e-05
258.000      1.23947e-04
259.000      3.40060e-04
260.000      8.82809e-04
261.000      2.16873e-03
262.000      5.04215e-03
263.000      1.10960e-02
264.000      2.31179e-02
265.000      4.56143e-02
266.000      8.52737e-02
267.000      1.51135e-01
268.000      2.54180e-01
269.000      4.06145e-01
270.000      6.17640e-01
271.000      8.96008e-01
272.000      1.24376e+00
273.000      1.65833e+00
274.000      2.13352e+00
275.000      2.66172e+00
276.000      3.23553e+00
277.000      3.84685e+00
278.000      4.48275e+00
279.000      5.11982e+00
280.000      5.72018e+00
281.000      6.23367e+00
282.000      6.60830e+00
283.000      6.80781e+00
284.000      6.83088e+00
285.000      6.72421e+00
286.000      6.58286e+00
287.000      6.53519e+00
288.000      6.71510e+00
289.000      7.22920e+00
290.000      8.12820e+00
291.000      9.39072e+00
292.000      1.09239e+01
293.000      1.25797e+01
294.000      1.41824e+01
295.000      1.55590e+01
296.000      1.65666e+01
297.000      1.71117e+01
298.000      1.71600e+01
299.000      1.67394e+01
300.000      1.59362e+01
301.000      1.48859e+01
302.000      1.37568e+01
303.000      1.27259e+01
304.000      1.19493e+01
305.000      1.15301e+01
306.000      1.14957e+01
307.000      1.17889e+01
308.000      1.22801e+01
309.000      1.27977e+01
310.000      1.31703e+01
311.000      1.32692e+01
312.000      1.30401e+01
313.000      1.25182e+01
314.000      1.18203e+01
315.000      1.11210e+01
316.000      1.06147e+01
317.000      1.04749e+01
318.000      1.08187e+01
319.000      1.16828e+01
320.000      1.30186e+01
321.000      1.47054e+01
322.000      1.65784e+01
323.000      1.84639e+01
324.000      2.02119e+01
325.000      2.17182e+01
326.000      2.29323e+01
327.000      2.38521e+01
328.000      2.45101e+01
329.000      2.49565e+01
330.000      2.52441e+01
331.000      2.54172e+01
332.000      2.55051e+01
333.000      2.55202e+01
334.000      2.54591e+01
335.000      2.53075e+01
336.000      2.50474e+01
337.000      2.46669e+01
338.000      2.41678e+01
339.000      2.35725e+01
340.000      2.29240e+01
341.000      2.22815e+01
342.000      2.17103e+01
343.000      2.12698e+01
344.000      2.10020e+01
345.000      2.09246e+01
346.000      2.10306e+01
347.000      2.12922e+01
348.000      2.16690e+01
349.000      2.21161e+01
350.000      2.25900e+01
351.000      2.30530e+01
352.000      2.34764e+01
353.000      2.38438e+01
354.000      2.41532e+01
355.000      2.44173e+01
356.000      2.46588e+01
357.000      2.49007e+01
358.000      2.51541e+01
359.000      2.54067e+01
360.000      2.56187e+01
361.000      2.57262e+01
362.000      2.56553e+01
363.000      2.53387e+01
364.000      2.47339e+01
365.000      2.38332e+01
366.000      2.26657e+01
367.000      2.12892e+01
368.000      1.97764e+01
369.000      1.81991e+01
370.000      1.66173e+01
371.000      1.50755e+01
372.000      1.36060e+01
373.000      1.22370e+01
374.000      1.10000e+01
375.000      9.93301e+00
376.000      9.07758e+00
377.000      8.47248e+00
378.000      8.14727e+00
379.000      8.11957e+00
380.000      8.39687e+00
381.000      8.98075e+00
382.000      9.86945e+00
383.000      1.10555e+01
384.000      1.25182e+01
385.000      1.42159e+01
386.000      1.60818e+01
387.000      1.80305e+01
388.000      1.99726e+01
389.000      2.18325e+01
390.000      2.35588e+01
391.000      2.51209e+01
392.000      2.64910e+01
393.000      2.76197e+01
394.000      2.84191e+01
395.000      2.87636e+01
396.000      2.85147e+01
397.000      2.75607e+01
398.000      2.58584e+01
399.000      2.34603e+01
400.000      2.05168e+01
401.000      1.72517e+01
402.000      1.39199e+01
403.000      1.07608e+01
404.000      7.96009e+00
405.000      5.62895e+00
406.000      3.80228e+00
407.000      2.45254e+00
408.000      1.51173e+00
409.000      8.94434e-01
410.000      5.16447e-01
411.000      3.06698e-01
412.000      2.12321e-01
413.000      1.98521e-01
414.000      2.45231e-01
415.000      3.42413e-01
416.000      4.85395e-01
417.000      6.71191e-01
418.000      8.96331e-01
419.000      1.15636e+00
420.000      1.44658e+00
421.000      1.76329e+00
422.000      2.10431e+00
423.000      2.46804e+00
424.000      2.85071e+00
425.000      3.24286e+00
426.000      3.62622e+00
427.000      3.97307e+00
428.000      4.24884e+00
429.000      4.41798e+00
430.000      4.45156e+00
431.000      4.33435e+00
432.000      4.06928e+00
433.000      3.67774e+00
434.000      3.19586e+00
435.000      2.66789e+00
436.000      2.13867e+00
437.000      1.64704e+00
438.000      1.22160e+00
439.000      8.79350e-01
440.000      6.26723e-01
441.000      4.62150e-01
442.000      3.78861e-01
443.000      3.67012e-01
444.000      4.14609e-01
445.000      5.07400e-01
446.000      6.28405e-01
447.000      7.58003e-01
448.000      8.75265e-01
449.000      9.60627e-01
450.000      9.99280e-01
451.000      9.84128e-01
452.000      9.17187e-01
453.000      8.08781e-01
454.000      6.74747e-01
455.000      5.32569e-01
456.000      3.97679e-01
457.000      2.80936e-01
458.000      1.87759e-01
459.000      1.18716e-01
460.000      7.10133e-02
461.000      4.01870e-02
462.000      2.15154e-02
463.000      1.08976e-02
464.000      5.22191e-03
465.000      2.36726e-03
466.000      1.01527e-03
467.000      4.11938e-04
468.000      1.58125e-04
469.000      5.74233e-05
470.000      1.97284e-05
471.000      6.41232e-06
472.000      1.97176e-06
473.000      5.73604e-07
474.000      1.57865e-07
475.000      4.11036e-08
476.000      1.01249e-08
477.000      2.35949e-09
478.000      5.20191e-10
479.000      1.08499e-10
480.000      2.14095e-11
481.000      3.99672e-12
482.000      7.05862e-13
483.000      1.17938e-13
484.000      1.86425e-14
485.000      2.78787e-15
486.000      3.94420e-16
487.000      5.27913e-17
488.000      6.68473e-18
489.000      8.00798e-19
490.000      9.07568e-20
491.000      9.73091e-21
492.000      9.87064e-22
493.000      9.47228e-23
494.000      8.59966e-24
495.000      7.38629e-25
496.000      6.00189e-26
497.000      4.61390e-27
498.000      3.35556e-28
499.000      2.30877e-29
500.000      1.50284e-30
