# Gaussian folded, width=10 cm^-1
# [cm^-1] arbitrary
0.000      3.00000e+00
1.000      2.91796e+00
2.000      2.68508e+00
3.000      2.33749e+00
4.000      1.92514e+00
5.000      1.50000e+00
6.000      1.10570e+00
7.000      7.71085e-01
8.000      5.08727e-01
9.000      3.17530e-01
10.000      1.87500e-01
11.000      1.04746e-01
12.000      5.53605e-02
13.000      2.76845e-02
14.000      1.31093e-02
15.000      5.90866e-03
16.000      2.62378e-03
17.000      1.38762e-03
18.000      1.40579e-03
19.000      2.68638e-03
20.000      6.04846e-03
21.000      1.34221e-02
22.000      2.84425e-02
23.000      5.72979e-02
24.000      1.09689e-01
25.000      1.99588e-01
26.000      3.45284e-01
27.000      5.68102e-01
28.000      8.89244e-01
29.000      1.32463e+00
30.000      1.87835e+00
31.000      2.53628e+00
32.000      3.26189e+00
33.000      3.99673e+00
34.000      4.66655e+00
35.000      5.19307e+00
36.000      5.50877e+00
37.000      5.57098e+00
38.000      5.37134e+00
39.000      4.93757e+00
40.000      4.32729e+00
41.000      3.61560e+00
42.000      2.88029e+00
43.000      2.18864e+00
44.000      1.58903e+00
45.000      1.10844e+00
46.000      7.55421e-01
47.000      5.26423e-01
48.000      4.13144e-01
49.000      4.08736e-01
50.000      5.11408e-01
51.000      7.24746e-01
52.000      1.05483e+00
53.000      1.50489e+00
54.000      2.06867e+00
55.000      2.72448e+00
56.000      3.43163e+00
57.000      4.13128e+00
58.000      4.75240e+00
59.000      5.22247e+00
60.000      5.48082e+00
61.000      5.49125e+00
62.000      5.25046e+00
63.000      4.78956e+00
64.000      4.16817e+00
65.000      3.46267e+00
66.000      2.75230e+00
67.000      2.10666e+00
68.000      1.57781e+00
69.000      1.19778e+00
70.000      9.80659e-01
71.000      9.27015e-01
72.000      1.02825e+00
73.000      1.26944e+00
74.000      1.63019e+00
75.000      2.08446e+00
76.000      2.60044e+00
77.000      3.14167e+00
78.000      3.67001e+00
79.000      4.15003e+00
80.000      4.55422e+00
81.000      4.86786e+00
82.000      5.09272e+00
83.000      5.24847e+00
84.000      5.37132e+00
85.000      5.50937e+00
86.000      5.71492e+00
87.000      6.03478e+00
88.000      6.50068e+00
89.000      7.12206e+00
90.000      7.88367e+00
91.000      8.74870e+00
92.000      9.66660e+00
93.000      1.05831e+01
94.000      1.14488e+01
95.000      1.22251e+01
96.000      1.28841e+01
97.000      1.34068e+01
98.000      1.37784e+01
99.000      1.39864e+01
100.000      1.40200e+01
101.000      1.38728e+01
102.000      1.35462e+01
103.000      1.30532e+01
104.000      1.24201e+01
105.000      1.16864e+01
106.000      1.09030e+01
107.000      1.01277e+01
108.000      9.41983e+00
109.000      8.83374e+00
110.000      8.41211e+00
111.000      8.18069e+00
112.000      8.14581e+00
113.000      8.29513e+00
114.000      8.60148e+00
115.000      9.02831e+00
116.000      9.53538e+00
117.000      1.00834e+01
118.000      1.06375e+01
119.000      1.11695e+01
120.000      1.16595e+01
121.000      1.20964e+01
122.000      1.24773e+01
123.000      1.28054e+01
124.000      1.30866e+01
125.000      1.33260e+01
126.000      1.35250e+01
127.000      1.36806e+01
128.000      1.37870e+01
129.000      1.38380e+01
130.000      1.38305e+01
131.000      1.37667e+01
132.000      1.36539e+01
133.000      1.35026e+01
134.000      1.33222e+01
135.000      1.31178e+01
136.000      1.28873e+01
137.000      1.26221e+01
138.000      1.23096e+01
139.000      1.19383e+01
140.000      1.15031e+01
141.000      1.10090e+01
142.000      1.04725e+01
143.000      9.91943e+00
144.000      9.38002e+00
145.000      8.88304e+00
146.000      8.45002e+00
147.000      8.09182e+00
148.000      7.80833e+00
149.000      7.59098e+00
150.000      7.42693e+00
151.000      7.30328e+00
152.000      7.20996e+00
153.000      7.14085e+00
154.000      7.09332e+00
155.000      7.06697e+00
156.000      7.06236e+00
157.000      7.07997e+00
158.000      7.11934e+00
159.000      7.17836e+00
160.000      7.25234e+00
161.000      7.33332e+00
162.000      7.40998e+00
163.000      7.46860e+00
164.000      7.49557e+00
165.000      7.48105e+00
166.000      7.42298e+00
167.000      7.32995e+00
168.000      7.22146e+00
169.000      7.12487e+00
170.000      7.06933e+00
171.000      7.07851e+00
172.000      7.16439e+00
173.000      7.32416e+00
174.000      7.54143e+00
175.000      7.79139e+00
176.000      8.04810e+00
177.000      8.29167e+00
178.000      8.51295e+00
179.000      8.71400e+00
180.000      8.90440e+00
181.000      9.09472e+00
182.000      9.28956e+00
183.000      9.48312e+00
184.000      9.65909e+00
185.000      9.79529e+00
186.000      9.87154e+00
187.000      9.87820e+00
188.000      9.82220e+00
189.000      9.72846e+00
190.000      9.63595e+00
191.000      9.58917e+00
192.000      9.62754e+00
193.000      9.77566e+00
194.000      1.00375e+01
195.000      1.03964e+01
196.000      1.08200e+01
197.000      1.12694e+01
198.000      1.17082e+01
199.000      1.21088e+01
200.000      1.24550e+01
201.000      1.27399e+01
202.000      1.29625e+01
203.000      1.31240e+01
204.000      1.32258e+01
205.000      1.32691e+01
206.000      1.32551e+01
207.000      1.31845e+01
208.000      1.30571e+01
209.000      1.28702e+01
210.000      1.26193e+01
211.000      1.22991e+01
212.000      1.19075e+01
213.000      1.14498e+01
214.000      1.09436e+01
215.000      1.04206e+01
216.000      9.92745e+00
217.000      9.52075e+00
218.000      9.26017e+00
219.000      9.19792e+00
220.000      9.36798e+00
221.000      9.77735e+00
222.000      1.04019e+01
223.000      1.11887e+01
224.000      1.20640e+01
225.000      1.29460e+01
226.000      1.37592e+01
227.000      1.44461e+01
228.000      1.49748e+01
229.000      1.53407e+01
230.000      1.55615e+01
231.000      1.56687e+01
232.000      1.56965e+01
233.000      1.56724e+01
234.000      1.56120e+01
235.000      1.55187e+01
236.000      1.53893e+01
237.000      1.52216e+01
238.000      1.50211e+01
239.000      1.48036e+01
240.000      1.45930e+01
241.000      1.44142e+01
242.000      1.42850e+01
243.000      1.42102e+01
244.000      1.41804e+01
245.000      1.41745e+01
246.000      1.41653e+01
247.000      1.41251e+01
248.000      1.40286e+01
249.000      1.38545e+01
250.000      1.35849e+01
251.000      1.32051e+01
252.000      1.27055e+01
253.000      1.20858e+01
254.000      1.13592e+01
255.000      1.05549e+01
256.000      9.71737e+00
257.000      8.90058e+00
258.000      8.15937e+00
259.000      7.53938e+00
260.000      7.06926e+00
261.000      6.75693e+00
262.000      6.59080e+00
263.000      6.54470e+00
264.000      6.58440e+00
265.000      6.67315e+00
266.000      6.77490e+00
267.000      6.85521e+00
268.000      6.88104e+00
269.000      6.82167e+00
270.000      6.65175e+00
271.000      6.35665e+00
272.000      5.93839e+00
273.000      5.41926e+00
274.000      4.84088e+00
275.000      4.25754e+00
276.000      3.72504e+00
277.000      3.28832e+00
278.000      2.97177e+00
279.000      2.77551e+00
280.000      2.67898e+00
281.000      2.65050e+00
282.000      2.65945e+00
283.000      2.68693e+00
284.000      2.73148e+00
285.000      2.80841e+00
286.000      2.94338e+00
287.000      3.16251e+00
288.000      3.48207e+00
289.000      3.90049e+00
290.000      4.39442e+00
291.000      4.91996e+00
292.000      5.41894e+00
293.000      5.82912e+00
294.000      6.09645e+00
295.000      6.18633e+00
296.000      6.09102e+00
297.000      5.83115e+00
298.000      5.45085e+00
299.000      5.00814e+00
300.000      4.56363e+00
301.000      4.17072e+00
302.000      3.86960e+00
303.000      3.68552e+00
304.000      3.63027e+00
305.000      3.70478e+00
306.000      3.90119e+00
307.000      4.20385e+00
308.000      4.58986e+00
309.000      5.03060e+00
310.000      5.49520e+00
311.000      5.95625e+00
312.000      6.39615e+00
313.000      6.81210e+00
314.000      7.21751e+00
315.000      7.63871e+00
316.000      8.10719e+00
317.000      8.64941e+00
318.000      9.27713e+00
319.000      9.98131e+00
320.000      1.07319e+01
321.000      1.14837e+01
322.000      1.21874e+01
323.000      1.28010e+01
324.000      1.33003e+01
325.000      1.36833e+01
326.000      1.39694e+01
327.000      1.41929e+01
328.000      1.43951e+01
329.000      1.46165e+01
330.000      1.48902e+01
331.000      1.52393e+01
332.000      1.56758e+01
333.000      1.61999e+01
334.000      1.68014e+01
335.000      1.74594e+01
336.000      1.81437e+01
337.000      1.88174e+01
338.000      1.94403e+01
339.000      1.99741e+01
340.000      2.03878e+01
341.000      2.06622e+01
342.000      2.07931e+01
343.000      2.07918e+01
344.000      2.06819e+01
345.000      2.04949e+01
346.000      2.02628e+01
347.000      2.00123e+01
348.000      1.97596e+01
349.000      1.95087e+01
350.000      1.92517e+01
351.000      1.89713e+01
352.000      1.86446e+01
353.000      1.82476e+01
354.000      1.77597e+01
355.000      1.71684e+01
356.000      1.64721e+01
357.000      1.56823e+01
358.000      1.48226e+01
359.000      1.39253e+01
360.000      1.30260e+01
361.000      1.21584e+01
362.000      1.13480e+01
363.000      1.06091e+01
364.000      9.94342e+00
365.000      9.34194e+00
366.000      8.78843e+00
367.000      8.26430e+00
368.000      7.75338e+00
369.000      7.24566e+00
370.000      6.73943e+00
371.000      6.24143e+00
372.000      5.76540e+00
373.000      5.32959e+00
374.000      4.95447e+00
375.000      4.66132e+00
376.000      4.47194e+00
377.000      4.40885e+00
378.000      4.49445e+00
379.000      4.74832e+00
380.000      5.18221e+00
381.000      5.79378e+00
382.000      6.56124e+00
383.000      7.44061e+00
384.000      8.36711e+00
385.000      9.26080e+00
386.000      1.00357e+01
387.000      1.06109e+01
388.000      1.09226e+01
389.000      1.09337e+01
390.000      1.06411e+01
391.000      1.00773e+01
392.000      9.30585e+00
393.000      8.41045e+00
394.000      7.48064e+00
395.000      6.59600e+00
396.000      5.81353e+00
397.000      5.16083e+00
398.000      4.63640e+00
399.000      4.21655e+00
400.000      3.86630e+00
401.000      3.55121e+00
402.000      3.24665e+00
403.000      2.94253e+00
404.000      2.64256e+00
405.000      2.35920e+00
406.000      2.10665e+00
407.000      1.89477e+00
408.000      1.72597e+00
409.000      1.59583e+00
410.000      1.49638e+00
411.000      1.41996e+00
412.000      1.36159e+00
413.000      1.31887e+00
414.000      1.28973e+00
415.000      1.26970e+00
416.000      1.25046e+00
417.000      1.22071e+00
418.000      1.16907e+00
419.000      1.08781e+00
420.000      9.75653e-01
421.000      8.38404e-01
422.000      6.87341e-01
423.000      5.36027e-01
424.000      3.96876e-01
425.000      2.78629e-01
426.000      1.85330e-01
427.000      1.16731e-01
428.000      6.95979e-02
429.000      3.92724e-02
430.000      2.09701e-02
431.000      1.05949e-02
432.000      5.06465e-03
433.000      2.29059e-03
434.000      9.80123e-04
435.000      3.96773e-04
436.000      1.51959e-04
437.000      5.50598e-05
438.000      1.88739e-05
439.000      6.12081e-06
440.000      1.87791e-06
441.000      5.45077e-07
442.000      1.49679e-07
443.000      3.88848e-08
444.000      9.55690e-09
445.000      2.22215e-09
446.000      4.88816e-10
447.000      1.01727e-10
448.000      2.00283e-11
449.000      3.73052e-12
450.000      6.57375e-13
451.000      1.09591e-13
452.000      1.72843e-14
453.000      2.57899e-15
454.000      3.64052e-16
455.000      4.86177e-17
456.000      6.14248e-18
457.000      7.34193e-19
458.000      8.30222e-20
459.000      8.88170e-21
460.000      8.98909e-22
461.000      8.60702e-23
462.000      7.79664e-24
463.000      6.68159e-25
464.000      5.41713e-26
465.000      4.15506e-27
466.000      3.01510e-28
467.000      2.06988e-29
468.000      1.34433e-30
469.000      8.26005e-32
470.000      4.80151e-33
471.000      2.64053e-34
472.000      1.37379e-35
473.000      6.76192e-37
474.000      3.14873e-38
475.000      1.38714e-39
476.000      5.78123e-41
477.000      2.27950e-42
478.000      8.50306e-44
479.000      3.00074e-45
480.000      1.00184e-46
481.000      3.16439e-48
482.000      9.45575e-50
483.000      2.67313e-51
484.000      7.14928e-53
485.000      1.80893e-54
486.000      4.33011e-56
487.000      9.80603e-58
488.000      2.10090e-59
489.000      4.25829e-61
490.000      8.16550e-63
491.000      1.48132e-64
492.000      2.54232e-66
493.000      4.12792e-68
494.000      6.34087e-70
495.000      9.21476e-72
496.000      1.26689e-73
497.000      1.64781e-75
498.000      2.02766e-77
499.000      2.36049e-79
500.000      2.59971e-81
