# Gaussian folded, width=10 cm^-1
# [cm^-1] arbitrary
0.000      3.00000e+00
1.000      2.91796e+00
2.000      2.68508e+00
3.000      2.33749e+00
4.000      1.92514e+00
5.000      1.50000e+00
6.000      1.10570e+00
7.000      7.71085e-01
8.000      5.08727e-01
9.000      3.17530e-01
10.000      1.87500e-01
11.000      1.04747e-01
12.000      5.53649e-02
13.000      2.76988e-02
14.000      1.31532e-02
15.000      6.03626e-03
16.000      2.97451e-03
17.000      2.30005e-03
18.000      3.65227e-03
19.000      7.92009e-03
20.000      1.75841e-02
21.000      3.74706e-02
22.000      7.58447e-02
23.000      1.45601e-01
24.000      2.65056e-01
25.000      4.57573e-01
26.000      7.49130e-01
27.000      1.16320e+00
28.000      1.71304e+00
29.000      2.39285e+00
30.000      3.17037e+00
31.000      3.98435e+00
32.000      4.74961e+00
33.000      5.37044e+00
34.000      5.75977e+00
35.000      5.85912e+00
36.000      5.65297e+00
37.000      5.17282e+00
38.000      4.48940e+00
39.000      3.69592e+00
40.000      2.88782e+00
41.000      2.14549e+00
42.000      1.52415e+00
43.000      1.05254e+00
44.000      7.38530e-01
45.000      5.78277e-01
46.000      5.65073e-01
47.000      6.94931e-01
48.000      9.67481e-01
49.000      1.38226e+00
50.000      1.93186e+00
51.000      2.59433e+00
52.000      3.32783e+00
53.000      4.06999e+00
54.000      4.74352e+00
55.000      5.26782e+00
56.000      5.57387e+00
57.000      5.61878e+00
58.000      5.39553e+00
59.000      4.93491e+00
60.000      4.29904e+00
61.000      3.56850e+00
62.000      2.82684e+00
63.000      2.14716e+00
64.000      1.58372e+00
65.000      1.16992e+00
66.000      9.21350e-01
67.000      8.41460e-01
68.000      9.26737e-01
69.000      1.16945e+00
70.000      1.55727e+00
71.000      2.07057e+00
72.000      2.67951e+00
73.000      3.34303e+00
74.000      4.01136e+00
75.000      4.63274e+00
76.000      5.16309e+00
77.000      5.57646e+00
78.000      5.87311e+00
79.000      6.08252e+00
80.000      6.25963e+00
81.000      6.47429e+00
82.000      6.79634e+00
83.000      7.27967e+00
84.000      7.94963e+00
85.000      8.79696e+00
86.000      9.77966e+00
87.000      1.08318e+01
88.000      1.18761e+01
89.000      1.28377e+01
90.000      1.36539e+01
91.000      1.42812e+01
92.000      1.46968e+01
93.000      1.48964e+01
94.000      1.48907e+01
95.000      1.47002e+01
96.000      1.43509e+01
97.000      1.38709e+01
98.000      1.32880e+01
99.000      1.26294e+01
100.000      1.19223e+01
101.000      1.11952e+01
102.000      1.04795e+01
103.000      9.81081e+00
104.000      9.22824e+00
105.000      8.77327e+00
106.000      8.48618e+00
107.000      8.40125e+00
108.000      8.54095e+00
109.000      8.91046e+00
110.000      9.49404e+00
111.000      1.02548e+01
112.000      1.11390e+01
113.000      1.20834e+01
114.000      1.30251e+01
115.000      1.39098e+01
116.000      1.46965e+01
117.000      1.53580e+01
118.000      1.58778e+01
119.000      1.62460e+01
120.000      1.64573e+01
121.000      1.65102e+01
122.000      1.64091e+01
123.000      1.61664e+01
124.000      1.58035e+01
125.000      1.53492e+01
126.000      1.48368e+01
127.000      1.43009e+01
128.000      1.37739e+01
129.000      1.32841e+01
130.000      1.28538e+01
131.000      1.24982e+01
132.000      1.22232e+01
133.000      1.20249e+01
134.000      1.18897e+01
135.000      1.17960e+01
136.000      1.17190e+01
137.000      1.16353e+01
138.000      1.15267e+01
139.000      1.13832e+01
140.000      1.12015e+01
141.000      1.09833e+01
142.000      1.07315e+01
143.000      1.04486e+01
144.000      1.01360e+01
145.000      9.79508e+00
146.000      9.42891e+00
147.000      9.04363e+00
148.000      8.64879e+00
149.000      8.25667e+00
150.000      7.88079e+00
151.000      7.53396e+00
152.000      7.22630e+00
153.000      6.96357e+00
154.000      6.74619e+00
155.000      6.56927e+00
156.000      6.42375e+00
157.000      6.29833e+00
158.000      6.18184e+00
159.000      6.06535e+00
160.000      5.94397e+00
161.000      5.81808e+00
162.000      5.69426e+00
163.000      5.58545e+00
164.000      5.51009e+00
165.000      5.48957e+00
166.000      5.54397e+00
167.000      5.68695e+00
168.000      5.92134e+00
169.000      6.23735e+00
170.000      6.61443e+00
171.000      7.02652e+00
172.000      7.44932e+00
173.000      7.86671e+00
174.000      8.27444e+00
175.000      8.67961e+00
176.000      9.09653e+00
177.000      9.54056e+00
178.000      1.00220e+01
179.000      1.05420e+01
180.000      1.10917e+01
181.000      1.16541e+01
182.000      1.22082e+01
183.000      1.27337e+01
184.000      1.32149e+01
185.000      1.36429e+01
186.000      1.40150e+01
187.000      1.43331e+01
188.000      1.46019e+01
189.000      1.48274e+01
190.000      1.50164e+01
191.000      1.51781e+01
192.000      1.53241e+01
193.000      1.54697e+01
194.000      1.56325e+01
195.000      1.58313e+01
196.000      1.60837e+01
197.000      1.64037e+01
198.000      1.67991e+01
199.000      1.72679e+01
200.000      1.77950e+01
201.000      1.83502e+01
202.000      1.88878e+01
203.000      1.93506e+01
204.000      1.96770e+01
205.000      1.98115e+01
206.000      1.97156e+01
207.000      1.93762e+01
208.000      1.88086e+01
209.000      1.80540e+01
210.000      1.71699e+01
211.000      1.62189e+01
212.000      1.52562e+01
213.000      1.43233e+01
214.000      1.34475e+01
215.000      1.26483e+01
216.000      1.19466e+01
217.000      1.13723e+01
218.000      1.09646e+01
219.000      1.07641e+01
220.000      1.08000e+01
221.000      1.10755e+01
222.000      1.15601e+01
223.000      1.21909e+01
224.000      1.28837e+01
225.000      1.35495e+01
226.000      1.41134e+01
227.000      1.45283e+01
228.000      1.47817e+01
229.000      1.48952e+01
230.000      1.49162e+01
231.000      1.49063e+01
232.000      1.49286e+01
233.000      1.50354e+01
234.000      1.52607e+01
235.000      1.56166e+01
236.000      1.60942e+01
237.000      1.66676e+01
238.000      1.72997e+01
239.000      1.79482e+01
240.000      1.85710e+01
241.000      1.91314e+01
242.000      1.96016e+01
243.000      1.99650e+01
244.000      2.02162e+01
245.000      2.03577e+01
246.000      2.03939e+01
247.000      2.03238e+01
248.000      2.01358e+01
249.000      1.98061e+01
250.000      1.93024e+01
251.000      1.85938e+01
252.000      1.76632e+01
253.000      1.65183e+01
254.000      1.51983e+01
255.000      1.37727e+01
256.000      1.23325e+01
257.000      1.09755e+01
258.000      9.78955e+00
259.000      8.83824e+00
260.000      8.15063e+00
261.000      7.71844e+00
262.000      7.49983e+00
263.000      7.42936e+00
264.000      7.43179e+00
265.000      7.43705e+00
266.000      7.39329e+00
267.000      7.27513e+00
268.000      7.08597e+00
269.000      6.85418e+00
270.000      6.62506e+00
271.000      6.45055e+00
272.000      6.37940e+00
273.000      6.44940e+00
274.000      6.68248e+00
275.000      7.08293e+00
276.000      7.63787e+00
277.000      8.31929e+00
278.000      9.08641e+00
279.000      9.88815e+00
280.000      1.06657e+01
281.000      1.13557e+01
282.000      1.18962e+01
283.000      1.22332e+01
284.000      1.23301e+01
285.000      1.21751e+01
286.000      1.17849e+01
287.000      1.12034e+01
288.000      1.04938e+01
289.000      9.72706e+00
290.000      8.96946e+00
291.000      8.27222e+00
292.000      7.66550e+00
293.000      7.15717e+00
294.000      6.73559e+00
295.000      6.37530e+00
296.000      6.04391e+00
297.000      5.70932e+00
298.000      5.34592e+00
299.000      4.93902e+00
300.000      4.48717e+00
301.000      4.00205e+00
302.000      3.50669e+00
303.000      3.03250e+00
304.000      2.61564e+00
305.000      2.29310e+00
306.000      2.09825e+00
307.000      2.05621e+00
308.000      2.17927e+00
309.000      2.46335e+00
310.000      2.88668e+00
311.000      3.41161e+00
312.000      3.98947e+00
313.000      4.56782e+00
314.000      5.09823e+00
315.000      5.54282e+00
316.000      5.87824e+00
317.000      6.09659e+00
318.000      6.20404e+00
319.000      6.21795e+00
320.000      6.16344e+00
321.000      6.06991e+00
322.000      5.96737e+00
323.000      5.88293e+00
324.000      5.83795e+00
325.000      5.84693e+00
326.000      5.91891e+00
327.000      6.06102e+00
328.000      6.28271e+00
329.000      6.59791e+00
330.000      7.02323e+00
331.000      7.57192e+00
332.000      8.24574e+00
333.000      9.02827e+00
334.000      9.88339e+00
335.000      1.07599e+01
336.000      1.16012e+01
337.000      1.23564e+01
338.000      1.29886e+01
339.000      1.34793e+01
340.000      1.38268e+01
341.000      1.40423e+01
342.000      1.41443e+01
343.000      1.41537e+01
344.000      1.40893e+01
345.000      1.39649e+01
346.000      1.37862e+01
347.000      1.35486e+01
348.000      1.32384e+01
349.000      1.28351e+01
350.000      1.23184e+01
351.000      1.16761e+01
352.000      1.09120e+01
353.000      1.00503e+01
354.000      9.13511e+00
355.000      8.22363e+00
356.000      7.37561e+00
357.000      6.64114e+00
358.000      6.05070e+00
359.000      5.61030e+00
360.000      5.30278e+00
361.000      5.09452e+00
362.000      4.94511e+00
363.000      4.81711e+00
364.000      4.68348e+00
365.000      4.53119e+00
366.000      4.36086e+00
367.000      4.18303e+00
368.000      4.01247e+00
369.000      3.86205e+00
370.000      3.73809e+00
371.000      3.63852e+00
372.000      3.55460e+00
373.000      3.47563e+00
374.000      3.39508e+00
375.000      3.31578e+00
376.000      3.25221e+00
377.000      3.22866e+00
378.000      3.27349e+00
379.000      3.41108e+00
380.000      3.65360e+00
381.000      3.99487e+00
382.000      4.40795e+00
383.000      4.84734e+00
384.000      5.25577e+00
385.000      5.57429e+00
386.000      5.75382e+00
387.000      5.76515e+00
388.000      5.60480e+00
389.000      5.29465e+00
390.000      4.87540e+00
391.000      4.39580e+00
392.000      3.90117e+00
393.000      3.42468e+00
394.000      2.98376e+00
395.000      2.58182e+00
396.000      2.21357e+00
397.000      1.87142e+00
398.000      1.55044e+00
399.000      1.25063e+00
400.000      9.76357e-01
401.000      7.34049e-01
402.000      5.29342e-01
403.000      3.65000e-01
404.000      2.40083e-01
405.000      1.50367e-01
406.000      8.95504e-02
407.000      5.06572e-02
408.000      2.71966e-02
409.000      1.38487e-02
410.000      6.68500e-03
411.000      3.05786e-03
412.000      1.32500e-03
413.000      5.43737e-04
414.000      2.11273e-04
415.000      7.77162e-05
416.000      2.70603e-05
417.000      8.91789e-06
418.000      2.78139e-06
419.000      8.20924e-07
420.000      2.29277e-07
421.000      6.05920e-08
422.000      1.51514e-08
423.000      3.58473e-09
424.000      8.02457e-10
425.000      1.69956e-10
426.000      3.40563e-11
427.000      6.45649e-12
428.000      1.15806e-12
429.000      1.96515e-13
430.000      3.15493e-14
431.000      4.79194e-15
432.000      6.88584e-16
433.000      9.36109e-17
434.000      1.20398e-17
435.000      1.46498e-18
436.000      1.68641e-19
437.000      1.83661e-20
438.000      1.89230e-21
439.000      1.84452e-22
440.000      1.70096e-23
441.000      1.48397e-24
442.000      1.22482e-25
443.000      9.56397e-27
444.000      7.06517e-28
445.000      4.93771e-29
446.000      3.26472e-30
447.000      2.04213e-31
448.000      1.20848e-32
449.000      6.76572e-34
450.000      3.58349e-35
451.000      1.79562e-36
452.000      8.51221e-38
453.000      3.81757e-39
454.000      1.61976e-40
455.000      6.50174e-42
456.000      2.46904e-43
457.000      8.87039e-45
458.000      3.01492e-46
459.000      9.69452e-48
460.000      2.94913e-49
461.000      8.48751e-51
462.000      2.31091e-52
463.000      5.95257e-54
464.000      1.45059e-55
465.000      3.34426e-57
466.000      7.29413e-59
467.000      1.50510e-60
468.000      2.93815e-62
469.000      5.42626e-64
470.000      9.48080e-66
471.000      1.56714e-67
472.000      2.45068e-69
473.000      3.62563e-71
474.000      5.07456e-73
475.000      6.71940e-75
476.000      8.41744e-77
477.000      9.97580e-79
478.000      1.11849e-80
479.000      1.18641e-82
480.000      1.19057e-84
481.000      1.13030e-86
482.000      1.01519e-88
483.000      8.62625e-91
484.000      6.93446e-93
485.000      5.27377e-95
486.000      3.79443e-97
487.000      2.58280e-99
488.000     1.66323e-101
489.000     1.01328e-103
490.000     5.84018e-106
491.000     3.18449e-108
492.000     1.64275e-110
493.000     8.01717e-113
494.000     3.70158e-115
495.000     1.61686e-117
496.000     6.68150e-120
497.000     2.61212e-122
498.000     9.66118e-125
499.000     3.38053e-127
500.000     1.11907e-129
