# Gaussian folded, width=10 cm^-1
# [cm^-1] arbitrary
0.000      3.00000e+00
1.000      2.91796e+00
2.000      2.68508e+00
3.000      2.33749e+00
4.000      1.92514e+00
5.000      1.50000e+00
6.000      1.10570e+00
7.000      7.71085e-01
8.000      5.08727e-01
9.000      3.17529e-01
10.000      1.87500e-01
11.000      1.04746e-01
12.000      5.53591e-02
13.000      2.76797e-02
14.000      1.30940e-02
15.000      5.86212e-03
16.000      2.48985e-03
17.000      1.02250e-03
18.000      4.63057e-04
19.000      3.80908e-04
20.000      7.08904e-04
21.000      1.71168e-03
22.000      4.12682e-03
23.000      9.50891e-03
24.000      2.08228e-02
25.000      4.33108e-02
26.000      8.55706e-02
27.000      1.60612e-01
28.000      2.86423e-01
29.000      4.85352e-01
30.000      7.81556e-01
31.000      1.19604e+00
32.000      1.73953e+00
33.000      2.40452e+00
34.000      3.15893e+00
35.000      3.94422e+00
36.000      4.68036e+00
37.000      5.27809e+00
38.000      5.65628e+00
39.000      5.75987e+00
40.000      5.57301e+00
41.000      5.12302e+00
42.000      4.47388e+00
43.000      3.71130e+00
44.000      2.92425e+00
45.000      2.18845e+00
46.000      1.55578e+00
47.000      1.05145e+00
48.000      6.77588e-01
49.000      4.20990e-01
50.000      2.61743e-01
51.000      1.80735e-01
52.000      1.64782e-01
53.000      2.09195e-01
54.000      3.18044e-01
55.000      5.02434e-01
56.000      7.77034e-01
57.000      1.15510e+00
58.000      1.64247e+00
59.000      2.23164e+00
60.000      2.89716e+00
61.000      3.59435e+00
62.000      4.26231e+00
63.000      4.83172e+00
64.000      5.23618e+00
65.000      5.42473e+00
66.000      5.37229e+00
67.000      5.08520e+00
68.000      4.60022e+00
69.000      3.97724e+00
70.000      3.28793e+00
71.000      2.60347e+00
72.000      1.98436e+00
73.000      1.47477e+00
74.000      1.10143e+00
75.000      8.76324e-01
76.000      8.01022e-01
77.000      8.70570e-01
78.000      1.07565e+00
79.000      1.40261e+00
80.000      1.83213e+00
81.000      2.33774e+00
82.000      2.88546e+00
83.000      3.43535e+00
84.000      3.94529e+00
85.000      4.37636e+00
86.000      4.69902e+00
87.000      4.89899e+00
88.000      4.98142e+00
89.000      4.97240e+00
90.000      4.91658e+00
91.000      4.87115e+00
92.000      4.89649e+00
93.000      5.04539e+00
94.000      5.35313e+00
95.000      5.83083e+00
96.000      6.46387e+00
97.000      7.21591e+00
98.000      8.03723e+00
99.000      8.87492e+00
100.000      9.68179e+00
101.000      1.04216e+01
102.000      1.10695e+01
103.000      1.16099e+01
104.000      1.20316e+01
105.000      1.23259e+01
106.000      1.24858e+01
107.000      1.25084e+01
108.000      1.23967e+01
109.000      1.21616e+01
110.000      1.18209e+01
111.000      1.13959e+01
112.000      1.09082e+01
113.000      1.03770e+01
114.000      9.81909e+00
115.000      9.25129e+00
116.000      8.69431e+00
117.000      8.17550e+00
118.000      7.72879e+00
119.000      7.39089e+00
120.000      7.19474e+00
121.000      7.16191e+00
122.000      7.29690e+00
123.000      7.58492e+00
124.000      7.99422e+00
125.000      8.48237e+00
126.000      9.00475e+00
127.000      9.52311e+00
128.000      1.00121e+01
129.000      1.04616e+01
130.000      1.08757e+01
131.000      1.12668e+01
132.000      1.16489e+01
133.000      1.20313e+01
134.000      1.24144e+01
135.000      1.27891e+01
136.000      1.31398e+01
137.000      1.34476e+01
138.000      1.36950e+01
139.000      1.38675e+01
140.000      1.39552e+01
141.000      1.39523e+01
142.000      1.38573e+01
143.000      1.36739e+01
144.000      1.34113e+01
145.000      1.30844e+01
146.000      1.27123e+01
147.000      1.23159e+01
148.000      1.19144e+01
149.000      1.15227e+01
150.000      1.11499e+01
151.000      1.07996e+01
152.000      1.04709e+01
153.000      1.01608e+01
154.000      9.86648e+00
155.000      9.58653e+00
156.000      9.32180e+00
157.000      9.07450e+00
158.000      8.84640e+00
159.000      8.63662e+00
160.000      8.43991e+00
161.000      8.24645e+00
162.000      8.04346e+00
163.000      7.81837e+00
164.000      7.56252e+00
165.000      7.27408e+00
166.000      6.95900e+00
167.000      6.62999e+00
168.000      6.30363e+00
169.000      5.99710e+00
170.000      5.72534e+00
171.000      5.49978e+00
172.000      5.32841e+00
173.000      5.21691e+00
174.000      5.16953e+00
175.000      5.18900e+00
176.000      5.27505e+00
177.000      5.42188e+00
178.000      5.61604e+00
179.000      5.83597e+00
180.000      6.05434e+00
181.000      6.24305e+00
182.000      6.37955e+00
183.000      6.45234e+00
184.000      6.46364e+00
185.000      6.42831e+00
186.000      6.36956e+00
187.000      6.31307e+00
188.000      6.28173e+00
189.000      6.29220e+00
190.000      6.35381e+00
191.000      6.46890e+00
192.000      6.63386e+00
193.000      6.84019e+00
194.000      7.07573e+00
195.000      7.32612e+00
196.000      7.57674e+00
197.000      7.81436e+00
198.000      8.02810e+00
199.000      8.20886e+00
200.000      8.34796e+00
201.000      8.43570e+00
202.000      8.46141e+00
203.000      8.41539e+00
204.000      8.29256e+00
205.000      8.09640e+00
206.000      7.84126e+00
207.000      7.55199e+00
208.000      7.26041e+00
209.000      6.99964e+00
210.000      6.79779e+00
211.000      6.67274e+00
212.000      6.62892e+00
213.000      6.65702e+00
214.000      6.73622e+00
215.000      6.83880e+00
216.000      6.93609e+00
217.000      7.00478e+00
218.000      7.03207e+00
219.000      7.01865e+00
220.000      6.97838e+00
221.000      6.93492e+00
222.000      6.91588e+00
223.000      6.94643e+00
224.000      7.04391e+00
225.000      7.21494e+00
226.000      7.45547e+00
227.000      7.75306e+00
228.000      8.09036e+00
229.000      8.44829e+00
230.000      8.80839e+00
231.000      9.15379e+00
232.000      9.46928e+00
233.000      9.74060e+00
234.000      9.95347e+00
235.000      1.00929e+01
236.000      1.01437e+01
237.000      1.00929e+01
238.000      9.93366e+00
239.000      9.67054e+00
240.000      9.32258e+00
241.000      8.92322e+00
242.000      8.51504e+00
243.000      8.14051e+00
244.000      7.83149e+00
245.000      7.60112e+00
246.000      7.44149e+00
247.000      7.32791e+00
248.000      7.22846e+00
249.000      7.11528e+00
250.000      6.97340e+00
251.000      6.80408e+00
252.000      6.62168e+00
253.000      6.44566e+00
254.000      6.29132e+00
255.000      6.16298e+00
256.000      6.05251e+00
257.000      5.94350e+00
258.000      5.81887e+00
259.000      5.66862e+00
260.000      5.49403e+00
261.000      5.30699e+00
262.000      5.12496e+00
263.000      4.96421e+00
264.000      4.83441e+00
265.000      4.73650e+00
266.000      4.66415e+00
267.000      4.60727e+00
268.000      4.55538e+00
269.000      4.49908e+00
270.000      4.42922e+00
271.000      4.33505e+00
272.000      4.20303e+00
273.000      4.01806e+00
274.000      3.76722e+00
275.000      3.44480e+00
276.000      3.05650e+00
277.000      2.62081e+00
278.000      2.16695e+00
279.000      1.73006e+00
280.000      1.34559e+00
281.000      1.04475e+00
282.000      8.52201e-01
283.000      7.85661e-01
284.000      8.56455e-01
285.000      1.06950e+00
286.000      1.42198e+00
287.000      1.90097e+00
288.000      2.48144e+00
289.000      3.12632e+00
290.000      3.78993e+00
291.000      4.42477e+00
292.000      4.99011e+00
293.000      5.45973e+00
294.000      5.82641e+00
295.000      6.10144e+00
296.000      6.30971e+00
297.000      6.48183e+00
298.000      6.64621e+00
299.000      6.82330e+00
300.000      7.02330e+00
301.000      7.24728e+00
302.000      7.49041e+00
303.000      7.74575e+00
304.000      8.00719e+00
305.000      8.27114e+00
306.000      8.53689e+00
307.000      8.80614e+00
308.000      9.08220e+00
309.000      9.36911e+00
310.000      9.67084e+00
311.000      9.99048e+00
312.000      1.03296e+01
313.000      1.06879e+01
314.000      1.10625e+01
315.000      1.14479e+01
316.000      1.18367e+01
317.000      1.22200e+01
318.000      1.25895e+01
319.000      1.29401e+01
320.000      1.32732e+01
321.000      1.35984e+01
322.000      1.39351e+01
323.000      1.43108e+01
324.000      1.47575e+01
325.000      1.53061e+01
326.000      1.59801e+01
327.000      1.67899e+01
328.000      1.77299e+01
329.000      1.87775e+01
330.000      1.98961e+01
331.000      2.10393e+01
332.000      2.21576e+01
333.000      2.32040e+01
334.000      2.41398e+01
335.000      2.49391e+01
336.000      2.55915e+01
337.000      2.61027e+01
338.000      2.64932e+01
339.000      2.67932e+01
340.000      2.70369e+01
341.000      2.72543e+01
342.000      2.74644e+01
343.000      2.76704e+01
344.000      2.78592e+01
345.000      2.80053e+01
346.000      2.80781e+01
347.000      2.80510e+01
348.000      2.79090e+01
349.000      2.76531e+01
350.000      2.72984e+01
351.000      2.68682e+01
352.000      2.63841e+01
353.000      2.58564e+01
354.000      2.52781e+01
355.000      2.46241e+01
356.000      2.38574e+01
357.000      2.29406e+01
358.000      2.18487e+01
359.000      2.05799e+01
360.000      1.91615e+01
361.000      1.76469e+01
362.000      1.61077e+01
363.000      1.46195e+01
364.000      1.32483e+01
365.000      1.20392e+01
366.000      1.10101e+01
367.000      1.01531e+01
368.000      9.44040e+00
369.000      8.83517e+00
370.000      8.30266e+00
371.000      7.81936e+00
372.000      7.37777e+00
373.000      6.98636e+00
374.000      6.66565e+00
375.000      6.44260e+00
376.000      6.34521e+00
377.000      6.39884e+00
378.000      6.62404e+00
379.000      7.03517e+00
380.000      7.63866e+00
381.000      8.43077e+00
382.000      9.39521e+00
383.000      1.05017e+01
384.000      1.17065e+01
385.000      1.29543e+01
386.000      1.41819e+01
387.000      1.53215e+01
388.000      1.63034e+01
389.000      1.70591e+01
390.000      1.75237e+01
391.000      1.76415e+01
392.000      1.73726e+01
393.000      1.67011e+01
394.000      1.56431e+01
395.000      1.42503e+01
396.000      1.26088e+01
397.000      1.08314e+01
398.000      9.04316e+00
399.000      7.36608e+00
400.000      5.90244e+00
401.000      4.72277e+00
402.000      3.85928e+00
403.000      3.30592e+00
404.000      3.02422e+00
405.000      2.95326e+00
406.000      3.02133e+00
407.000      3.15729e+00
408.000      3.29960e+00
409.000      3.40229e+00
410.000      3.43747e+00
411.000      3.39480e+00
412.000      3.27858e+00
413.000      3.10333e+00
414.000      2.88870e+00
415.000      2.65469e+00
416.000      2.41817e+00
417.000      2.19112e+00
418.000      1.98101e+00
419.000      1.79246e+00
420.000      1.62908e+00
421.000      1.49440e+00
422.000      1.39108e+00
423.000      1.31897e+00
424.000      1.27305e+00
425.000      1.24273e+00
426.000      1.21332e+00
427.000      1.16955e+00
428.000      1.09968e+00
429.000      9.98873e-01
430.000      8.70295e-01
431.000      7.23793e-01
432.000      5.72728e-01
433.000      4.30289e-01
434.000      3.06528e-01
435.000      2.06878e-01
436.000      1.32208e-01
437.000      7.99766e-02
438.000      4.57862e-02
439.000      2.48038e-02
440.000      1.27139e-02
441.000      6.16583e-03
442.000      2.82909e-03
443.000      1.22810e-03
444.000      5.04366e-04
445.000      1.95967e-04
446.000      7.20343e-05
447.000      2.50505e-05
448.000      8.24162e-06
449.000      2.56524e-06
450.000      7.55371e-07
451.000      2.10432e-07
452.000      5.54599e-08
453.000      1.38282e-08
454.000      3.26189e-09
455.000      7.27932e-10
456.000      1.53684e-10
457.000      3.06963e-11
458.000      5.80044e-12
459.000      1.03694e-12
460.000      1.75373e-13
461.000      2.80601e-14
462.000      4.24751e-15
463.000      6.08271e-16
464.000      8.24094e-17
465.000      1.05627e-17
466.000      1.28082e-18
467.000      1.46934e-19
468.000      1.59468e-20
469.000      1.63735e-21
470.000      1.59047e-22
471.000      1.46160e-23
472.000      1.27072e-24
473.000      1.04517e-25
474.000      8.13289e-27
475.000      5.98713e-28
476.000      4.16975e-29
477.000      2.74738e-30
478.000      1.71256e-31
479.000      1.00992e-32
480.000      5.63444e-34
481.000      2.97392e-35
482.000      1.48500e-36
483.000      7.01522e-38
484.000      3.13526e-39
485.000      1.32563e-40
486.000      5.30261e-42
487.000      2.00666e-43
488.000      7.18418e-45
489.000      2.43331e-46
490.000      7.79713e-48
491.000      2.36369e-49
492.000      6.77895e-51
493.000      1.83930e-52
494.000      4.72129e-54
495.000      1.14653e-55
496.000      2.63409e-57
497.000      5.72520e-59
498.000      1.17725e-60
499.000      2.29016e-62
500.000      4.21482e-64
