# Gaussian folded, width=10 cm^-1
# [cm^-1] arbitrary
0.000      3.00000e+00
1.000      2.91796e+00
2.000      2.68508e+00
3.000      2.33749e+00
4.000      1.92514e+00
5.000      1.50000e+00
6.000      1.10570e+00
7.000      7.71085e-01
8.000      5.08727e-01
9.000      3.17530e-01
10.000      1.87501e-01
11.000      1.04748e-01
12.000      5.53676e-02
13.000      2.77070e-02
14.000      1.31765e-02
15.000      6.09850e-03
16.000      3.13113e-03
17.000      2.67059e-03
18.000      4.47558e-03
19.000      9.63557e-03
20.000      2.09299e-02
21.000      4.35638e-02
22.000      8.61703e-02
23.000      1.61805e-01
24.000      2.88432e-01
25.000      4.88208e-01
26.000      7.84836e-01
27.000      1.19858e+00
28.000      1.73926e+00
29.000      2.39864e+00
30.000      3.14447e+00
31.000      3.91909e+00
32.000      4.64443e+00
33.000      5.23402e+00
34.000      5.60944e+00
35.000      5.71741e+00
36.000      5.54208e+00
37.000      5.10897e+00
38.000      4.47902e+00
39.000      3.73495e+00
40.000      2.96421e+00
41.000      2.24353e+00
42.000      1.62921e+00
43.000      1.15449e+00
44.000      8.33138e-01
45.000      6.66562e-01
46.000      6.51045e-01
47.000      7.82547e-01
48.000      1.05756e+00
49.000      1.47020e+00
50.000      2.00685e+00
51.000      2.64076e+00
52.000      3.32883e+00
53.000      4.01260e+00
54.000      4.62393e+00
55.000      5.09469e+00
56.000      5.36829e+00
57.000      5.41025e+00
58.000      5.21502e+00
59.000      4.80726e+00
60.000      4.23718e+00
61.000      3.57126e+00
62.000      2.88074e+00
63.000      2.23103e+00
64.000      1.67431e+00
65.000      1.24680e+00
66.000      9.70004e-01
67.000      8.54626e-01
68.000      9.04403e-01
69.000      1.11808e+00
70.000      1.48845e+00
71.000      1.99902e+00
72.000      2.62032e+00
73.000      3.30841e+00
74.000      4.00783e+00
75.000      4.65976e+00
76.000      5.21398e+00
77.000      5.64133e+00
78.000      5.94256e+00
79.000      6.15015e+00
80.000      6.32178e+00
81.000      6.52709e+00
82.000      6.83142e+00
83.000      7.28127e+00
84.000      7.89545e+00
85.000      8.66357e+00
86.000      9.55129e+00
87.000      1.05096e+01
88.000      1.14846e+01
89.000      1.24249e+01
90.000      1.32858e+01
91.000      1.40287e+01
92.000      1.46198e+01
93.000      1.50287e+01
94.000      1.52287e+01
95.000      1.52006e+01
96.000      1.49383e+01
97.000      1.44545e+01
98.000      1.37847e+01
99.000      1.29857e+01
100.000      1.21296e+01
101.000      1.12930e+01
102.000      1.05449e+01
103.000      9.93620e+00
104.000      9.49504e+00
105.000      9.22823e+00
106.000      9.12819e+00
107.000      9.18179e+00
108.000      9.37716e+00
109.000      9.70572e+00
110.000      1.01592e+01
111.000      1.07241e+01
112.000      1.13767e+01
113.000      1.20822e+01
114.000      1.27982e+01
115.000      1.34822e+01
116.000      1.40991e+01
117.000      1.46262e+01
118.000      1.50546e+01
119.000      1.53856e+01
120.000      1.56257e+01
121.000      1.57812e+01
122.000      1.58548e+01
123.000      1.58449e+01
124.000      1.57477e+01
125.000      1.55598e+01
126.000      1.52818e+01
127.000      1.49205e+01
128.000      1.44918e+01
129.000      1.40206e+01
130.000      1.35393e+01
131.000      1.30830e+01
132.000      1.26830e+01
133.000      1.23595e+01
134.000      1.21153e+01
135.000      1.19347e+01
136.000      1.17858e+01
137.000      1.16293e+01
138.000      1.14283e+01
139.000      1.11582e+01
140.000      1.08137e+01
141.000      1.04082e+01
142.000      9.96940e+00
143.000      9.52953e+00
144.000      9.11590e+00
145.000      8.74396e+00
146.000      8.41541e+00
147.000      8.12154e+00
148.000      7.84948e+00
149.000      7.58884e+00
150.000      7.33577e+00
151.000      7.09349e+00
152.000      6.86953e+00
153.000      6.67141e+00
154.000      6.50272e+00
155.000      6.36082e+00
156.000      6.23690e+00
157.000      6.11788e+00
158.000      5.98949e+00
159.000      5.83976e+00
160.000      5.66238e+00
161.000      5.45935e+00
162.000      5.24258e+00
163.000      5.03373e+00
164.000      4.86220e+00
165.000      4.76107e+00
166.000      4.76188e+00
167.000      4.88903e+00
168.000      5.15521e+00
169.000      5.55863e+00
170.000      6.08254e+00
171.000      6.69729e+00
172.000      7.36451e+00
173.000      8.04318e+00
174.000      8.69667e+00
175.000      9.29925e+00
176.000      9.84038e+00
177.000      1.03252e+01
178.000      1.07705e+01
179.000      1.11979e+01
180.000      1.16248e+01
181.000      1.20589e+01
182.000      1.24955e+01
183.000      1.29203e+01
184.000      1.33146e+01
185.000      1.36625e+01
186.000      1.39561e+01
187.000      1.41980e+01
188.000      1.44005e+01
189.000      1.45819e+01
190.000      1.47628e+01
191.000      1.49608e+01
192.000      1.51880e+01
193.000      1.54491e+01
194.000      1.57419e+01
195.000      1.60596e+01
196.000      1.63931e+01
197.000      1.67345e+01
198.000      1.70780e+01
199.000      1.74199e+01
200.000      1.77557e+01
201.000      1.80769e+01
202.000      1.83670e+01
203.000      1.85999e+01
204.000      1.87400e+01
205.000      1.87468e+01
206.000      1.85814e+01
207.000      1.82146e+01
208.000      1.76360e+01
209.000      1.68592e+01
210.000      1.59241e+01
211.000      1.48934e+01
212.000      1.38457e+01
213.000      1.28657e+01
214.000      1.20348e+01
215.000      1.14228e+01
216.000      1.10814e+01
217.000      1.10394e+01
218.000      1.12985e+01
219.000      1.18308e+01
220.000      1.25792e+01
221.000      1.34616e+01
222.000      1.43815e+01
223.000      1.52408e+01
224.000      1.59554e+01
225.000      1.64675e+01
226.000      1.67542e+01
227.000      1.68292e+01
228.000      1.67385e+01
229.000      1.65509e+01
230.000      1.63450e+01
231.000      1.61949e+01
232.000      1.61577e+01
233.000      1.62640e+01
234.000      1.65150e+01
235.000      1.68838e+01
236.000      1.73232e+01
237.000      1.77755e+01
238.000      1.81844e+01
239.000      1.85058e+01
240.000      1.87159e+01
241.000      1.88163e+01
242.000      1.88340e+01
243.000      1.88149e+01
244.000      1.88129e+01
245.000      1.88742e+01
246.000      1.90225e+01
247.000      1.92477e+01
248.000      1.95025e+01
249.000      1.97086e+01
250.000      1.97719e+01
251.000      1.96036e+01
252.000      1.91407e+01
253.000      1.83629e+01
254.000      1.72992e+01
255.000      1.60245e+01
256.000      1.46454e+01
257.000      1.32798e+01
258.000      1.20357e+01
259.000      1.09926e+01
260.000      1.01907e+01
261.000      9.62926e+00
262.000      9.27231e+00
263.000      9.06107e+00
264.000      8.92817e+00
265.000      8.81102e+00
266.000      8.66158e+00
267.000      8.45153e+00
268.000      8.17302e+00
269.000      7.83626e+00
270.000      7.46537e+00
271.000      7.09370e+00
272.000      6.75908e+00
273.000      6.49911e+00
274.000      6.34638e+00
275.000      6.32391e+00
276.000      6.44118e+00
277.000      6.69181e+00
278.000      7.05338e+00
279.000      7.48975e+00
280.000      7.95550e+00
281.000      8.40186e+00
282.000      8.78311e+00
283.000      9.06267e+00
284.000      9.21791e+00
285.000      9.24292e+00
286.000      9.14834e+00
287.000      8.95825e+00
288.000      8.70450e+00
289.000      8.42021e+00
290.000      8.13406e+00
291.000      7.86699e+00
292.000      7.63144e+00
293.000      7.43226e+00
294.000      7.26776e+00
295.000      7.12971e+00
296.000      7.00258e+00
297.000      6.86310e+00
298.000      6.68202e+00
299.000      6.42884e+00
300.000      6.07916e+00
301.000      5.62241e+00
302.000      5.06759e+00
303.000      4.44449e+00
304.000      3.79972e+00
305.000      3.18852e+00
306.000      2.66451e+00
307.000      2.27029e+00
308.000      2.03104e+00
309.000      1.95218e+00
310.000      2.02080e+00
311.000      2.20982e+00
312.000      2.48300e+00
313.000      2.80014e+00
314.000      3.12152e+00
315.000      3.41197e+00
316.000      3.64455e+00
317.000      3.80365e+00
318.000      3.88694e+00
319.000      3.90523e+00
320.000      3.88011e+00
321.000      3.83986e+00
322.000      3.81491e+00
323.000      3.83436e+00
324.000      3.92415e+00
325.000      4.10659e+00
326.000      4.40019e+00
327.000      4.81875e+00
328.000      5.36963e+00
329.000      6.05192e+00
330.000      6.85549e+00
331.000      7.76163e+00
332.000      8.74462e+00
333.000      9.77355e+00
334.000      1.08134e+01
335.000      1.18255e+01
336.000      1.27691e+01
337.000      1.36040e+01
338.000      1.42960e+01
339.000      1.48219e+01
340.000      1.51741e+01
341.000      1.53611e+01
342.000      1.54029e+01
343.000      1.53237e+01
344.000      1.51438e+01
345.000      1.48737e+01
346.000      1.45126e+01
347.000      1.40520e+01
348.000      1.34823e+01
349.000      1.27997e+01
350.000      1.20115e+01
351.000      1.11377e+01
352.000      1.02093e+01
353.000      9.26419e+00
354.000      8.34273e+00
355.000      7.48317e+00
356.000      6.71857e+00
357.000      6.07433e+00
358.000      5.56630e+00
359.000      5.19953e+00
360.000      4.96770e+00
361.000      4.85373e+00
362.000      4.83158e+00
363.000      4.86906e+00
364.000      4.93134e+00
365.000      4.98483e+00
366.000      5.00103e+00
367.000      4.96006e+00
368.000      4.85319e+00
369.000      4.68349e+00
370.000      4.46425e+00
371.000      4.21529e+00
372.000      3.95838e+00
373.000      3.71345e+00
374.000      3.49685e+00
375.000      3.32198e+00
376.000      3.20121e+00
377.000      3.14713e+00
378.000      3.17201e+00
379.000      3.28476e+00
380.000      3.48686e+00
381.000      3.76884e+00
382.000      4.10894e+00
383.000      4.47474e+00
384.000      4.82705e+00
385.000      5.12513e+00
386.000      5.33198e+00
387.000      5.41889e+00
388.000      5.36889e+00
389.000      5.17902e+00
390.000      4.86110e+00
391.000      4.44079e+00
392.000      3.95456e+00
393.000      3.44467e+00
394.000      2.95263e+00
395.000      2.51246e+00
396.000      2.14514e+00
397.000      1.85603e+00
398.000      1.63579e+00
399.000      1.46482e+00
400.000      1.31983e+00
401.000      1.18045e+00
402.000      1.03404e+00
403.000      8.77338e-01
404.000      7.15178e-01
405.000      5.57016e-01
406.000      4.12999e-01
407.000      2.90839e-01
408.000      1.94241e-01
409.000      1.22918e-01
410.000      7.36594e-02
411.000      4.17853e-02
412.000      2.24338e-02
413.000      1.13974e-02
414.000      5.47886e-03
415.000      2.49193e-03
416.000      1.07233e-03
417.000      4.36568e-04
418.000      1.68153e-04
419.000      6.12751e-05
420.000      2.11244e-05
421.000      6.88977e-06
422.000      2.12591e-06
423.000      6.20589e-07
424.000      1.71388e-07
425.000      4.47792e-08
426.000      1.10685e-08
427.000      2.58834e-09
428.000      5.72625e-10
429.000      1.19850e-10
430.000      2.37313e-11
431.000      4.44552e-12
432.000      7.87847e-13
433.000      1.32093e-13
434.000      2.09524e-14
435.000      3.14417e-15
436.000      4.46371e-16
437.000      5.99519e-17
438.000      7.61778e-18
439.000      9.15737e-19
440.000      1.04143e-19
441.000      1.12049e-20
442.000      1.14052e-21
443.000      1.09829e-22
444.000      1.00057e-23
445.000      8.62376e-25
446.000      7.03173e-26
447.000      5.42433e-27
448.000      3.95865e-28
449.000      2.73316e-29
450.000      1.78526e-30
451.000      1.10320e-31
452.000      6.44952e-33
453.000      3.56711e-34
454.000      1.86648e-35
455.000      9.23947e-37
456.000      4.32702e-38
457.000      1.91712e-39
458.000      8.03573e-41
459.000      3.18655e-42
460.000      1.19545e-43
461.000      4.24290e-45
462.000      1.42466e-46
463.000      4.52559e-48
464.000      1.36006e-49
465.000      3.86685e-51
466.000      1.04010e-52
467.000      2.64674e-54
468.000      6.37183e-56
469.000      1.45123e-57
470.000      3.12697e-59
471.000      6.37425e-61
472.000      1.22928e-62
473.000      2.24282e-64
474.000      3.87126e-66
475.000      6.32162e-68
476.000      9.76613e-70
477.000      1.42736e-71
478.000      1.97362e-73
479.000      2.58172e-75
480.000      3.19502e-77
481.000      3.74072e-79
482.000      4.14338e-81
483.000      4.34182e-83
484.000      4.30434e-85
485.000      4.03700e-87
486.000      3.58203e-89
487.000      3.00688e-91
488.000      2.38793e-93
489.000      1.79409e-95
490.000      1.27522e-97
491.000     8.57517e-100
492.000     5.45529e-102
493.000     3.28330e-104
494.000     1.86948e-106
495.000     1.00705e-108
496.000     5.13211e-111
497.000     2.47434e-113
498.000     1.12860e-115
499.000     4.87011e-118
500.000     1.98818e-120
