# Gaussian folded, width=10 cm^-1
# [cm^-1] arbitrary
0.000      3.00000e+00
1.000      2.91796e+00
2.000      2.68508e+00
3.000      2.33749e+00
4.000      1.92514e+00
5.000      1.50000e+00
6.000      1.10570e+00
7.000      7.71085e-01
8.000      5.08727e-01
9.000      3.17529e-01
10.000      1.87500e-01
11.000      1.04746e-01
12.000      5.53591e-02
13.000      2.76797e-02
14.000      1.30938e-02
15.000      5.86159e-03
16.000      2.48826e-03
17.000      1.01806e-03
18.000      4.51471e-04
19.000      3.52658e-04
20.000      6.44689e-04
21.000      1.57607e-03
22.000      3.86204e-03
23.000      9.03428e-03
24.000      2.00505e-02
25.000      4.21921e-02
26.000      8.41850e-02
27.000      1.59294e-01
28.000      2.85887e-01
29.000      4.86743e-01
30.000      7.86307e-01
31.000      1.20547e+00
32.000      1.75420e+00
33.000      2.42354e+00
34.000      3.17949e+00
35.000      3.96182e+00
36.000      4.68979e+00
37.000      5.27499e+00
38.000      5.63879e+00
39.000      5.72963e+00
40.000      5.53503e+00
41.000      5.08429e+00
42.000      4.44134e+00
43.000      3.68994e+00
44.000      2.91595e+00
45.000      2.19200e+00
46.000      1.56778e+00
47.000      1.06764e+00
48.000      6.94050e-01
49.000      4.34827e-01
50.000      2.71271e-01
51.000      1.85297e-01
52.000      1.64489e-01
53.000      2.04791e-01
54.000      3.10972e-01
55.000      4.95005e-01
56.000      7.72470e-01
57.000      1.15720e+00
58.000      1.65475e+00
59.000      2.25605e+00
60.000      2.93280e+00
61.000      3.63677e+00
62.000      4.30392e+00
63.000      4.86351e+00
64.000      5.25027e+00
65.000      5.41691e+00
66.000      5.34351e+00
67.000      5.04140e+00
68.000      4.55052e+00
69.000      3.93128e+00
70.000      3.25334e+00
71.000      2.58432e+00
72.000      1.98108e+00
73.000      1.48510e+00
74.000      1.12193e+00
75.000      9.03693e-01
76.000      8.32615e-01
77.000      9.04162e-01
78.000      1.10852e+00
79.000      1.43050e+00
80.000      1.84872e+00
81.000      2.33520e+00
82.000      2.85643e+00
83.000      3.37605e+00
84.000      3.85865e+00
85.000      4.27359e+00
86.000      4.59819e+00
87.000      4.82010e+00
88.000      4.93930e+00
89.000      4.97007e+00
90.000      4.94247e+00
91.000      4.90210e+00
92.000      4.90628e+00
93.000      5.01602e+00
94.000      5.28458e+00
95.000      5.74548e+00
96.000      6.40375e+00
97.000      7.23330e+00
98.000      8.18143e+00
99.000      9.17893e+00
100.000      1.01526e+01
101.000      1.10369e+01
102.000      1.17819e+01
103.000      1.23574e+01
104.000      1.27518e+01
105.000      1.29693e+01
106.000      1.30240e+01
107.000      1.29340e+01
108.000      1.27165e+01
109.000      1.23842e+01
110.000      1.19455e+01
111.000      1.14066e+01
112.000      1.07763e+01
113.000      1.00710e+01
114.000      9.31814e+00
115.000      8.55698e+00
116.000      7.83604e+00
117.000      7.20783e+00
118.000      6.72208e+00
119.000      6.41888e+00
120.000      6.32320e+00
121.000      6.44146e+00
122.000      6.76089e+00
123.000      7.25156e+00
124.000      7.87092e+00
125.000      8.57004e+00
126.000      9.30055e+00
127.000      1.00209e+01
128.000      1.07011e+01
129.000      1.13243e+01
130.000      1.18868e+01
131.000      1.23943e+01
132.000      1.28570e+01
133.000      1.32840e+01
134.000      1.36778e+01
135.000      1.40310e+01
136.000      1.43257e+01
137.000      1.45359e+01
138.000      1.46331e+01
139.000      1.45927e+01
140.000      1.44003e+01
141.000      1.40562e+01
142.000      1.35773e+01
143.000      1.29948e+01
144.000      1.23491e+01
145.000      1.16834e+01
146.000      1.10369e+01
147.000      1.04391e+01
148.000      9.90773e+00
149.000      9.44884e+00
150.000      9.05923e+00
151.000      8.72976e+00
152.000      8.44852e+00
153.000      8.20330e+00
154.000      7.98311e+00
155.000      7.77907e+00
156.000      7.58504e+00
157.000      7.39828e+00
158.000      7.22020e+00
159.000      7.05687e+00
160.000      6.91908e+00
161.000      6.82118e+00
162.000      6.77883e+00
163.000      6.80551e+00
164.000      6.90896e+00
165.000      7.08857e+00
166.000      7.33488e+00
167.000      7.63147e+00
168.000      7.95843e+00
169.000      8.29568e+00
170.000      8.62440e+00
171.000      8.92608e+00
172.000      9.17991e+00
173.000      9.36090e+00
174.000      9.44082e+00
175.000      9.39296e+00
176.000      9.19955e+00
177.000      8.85910e+00
178.000      8.39049e+00
179.000      7.83178e+00
180.000      7.23388e+00
181.000      6.65075e+00
182.000      6.12940e+00
183.000      5.70202e+00
184.000      5.38218e+00
185.000      5.16523e+00
186.000      5.03229e+00
187.000      4.95668e+00
188.000      4.91103e+00
189.000      4.87406e+00
190.000      4.83531e+00
191.000      4.79720e+00
192.000      4.77394e+00
193.000      4.78773e+00
194.000      4.86317e+00
195.000      5.02109e+00
196.000      5.27298e+00
197.000      5.61701e+00
198.000      6.03633e+00
199.000      6.50049e+00
200.000      6.96998e+00
201.000      7.40362e+00
202.000      7.76710e+00
203.000      8.04066e+00
204.000      8.22329e+00
205.000      8.33181e+00
206.000      8.39479e+00
207.000      8.44309e+00
208.000      8.50001e+00
209.000      8.57468e+00
210.000      8.66066e+00
211.000      8.74032e+00
212.000      8.79314e+00
213.000      8.80473e+00
214.000      8.77347e+00
215.000      8.71243e+00
216.000      8.64615e+00
217.000      8.60345e+00
218.000      8.60867e+00
219.000      8.67404e+00
220.000      8.79548e+00
221.000      8.95307e+00
222.000      9.11611e+00
223.000      9.25127e+00
224.000      9.33153e+00
225.000      9.34304e+00
226.000      9.28798e+00
227.000      9.18242e+00
228.000      9.05020e+00
229.000      8.91479e+00
230.000      8.79203e+00
231.000      8.68596e+00
232.000      8.58898e+00
233.000      8.48598e+00
234.000      8.36073e+00
235.000      8.20228e+00
236.000      8.00911e+00
237.000      7.78988e+00
238.000      7.56072e+00
239.000      7.34032e+00
240.000      7.14475e+00
241.000      6.98357e+00
242.000      6.85848e+00
243.000      6.76453e+00
244.000      6.69315e+00
245.000      6.63568e+00
246.000      6.58620e+00
247.000      6.54255e+00
248.000      6.50546e+00
249.000      6.47630e+00
250.000      6.45430e+00
251.000      6.43457e+00
252.000      6.40752e+00
253.000      6.35996e+00
254.000      6.27778e+00
255.000      6.14937e+00
256.000      5.96916e+00
257.000      5.74033e+00
258.000      5.47598e+00
259.000      5.19804e+00
260.000      4.93374e+00
261.000      4.71002e+00
262.000      4.54730e+00
263.000      4.45446e+00
264.000      4.42699e+00
265.000      4.44878e+00
266.000      4.49699e+00
267.000      4.54756e+00
268.000      4.57913e+00
269.000      4.57421e+00
270.000      4.51798e+00
271.000      4.39690e+00
272.000      4.19897e+00
273.000      3.91656e+00
274.000      3.55063e+00
275.000      3.11405e+00
276.000      2.63204e+00
277.000      2.13896e+00
278.000      1.67248e+00
279.000      1.26754e+00
280.000      9.52123e-01
281.000      7.46025e-01
282.000      6.62232e-01
283.000      7.09314e-01
284.000      8.93093e-01
285.000      1.21628e+00
286.000      1.67597e+00
287.000      2.26000e+00
288.000      2.94400e+00
289.000      3.69086e+00
290.000      4.45372e+00
291.000      5.18226e+00
292.000      5.83081e+00
293.000      6.36601e+00
294.000      6.77191e+00
295.000      7.05117e+00
296.000      7.22230e+00
297.000      7.31391e+00
298.000      7.35789e+00
299.000      7.38320e+00
300.000      7.41187e+00
301.000      7.45789e+00
302.000      7.52887e+00
303.000      7.62922e+00
304.000      7.76340e+00
305.000      7.93755e+00
306.000      8.15887e+00
307.000      8.43314e+00
308.000      8.76179e+00
309.000      9.14011e+00
310.000      9.55739e+00
311.000      9.99885e+00
312.000      1.04482e+01
313.000      1.08901e+01
314.000      1.13123e+01
315.000      1.17071e+01
316.000      1.20742e+01
317.000      1.24225e+01
318.000      1.27704e+01
319.000      1.31442e+01
320.000      1.35722e+01
321.000      1.40768e+01
322.000      1.46676e+01
323.000      1.53373e+01
324.000      1.60634e+01
325.000      1.68155e+01
326.000      1.75647e+01
327.000      1.82929e+01
328.000      1.89980e+01
329.000      1.96928e+01
330.000      2.03981e+01
331.000      2.11325e+01
332.000      2.19021e+01
333.000      2.26939e+01
334.000      2.34767e+01
335.000      2.42077e+01
336.000      2.48443e+01
337.000      2.53568e+01
338.000      2.57369e+01
339.000      2.60004e+01
340.000      2.61819e+01
341.000      2.63248e+01
342.000      2.64694e+01
343.000      2.66422e+01
344.000      2.68510e+01
345.000      2.70856e+01
346.000      2.73219e+01
347.000      2.75288e+01
348.000      2.76738e+01
349.000      2.77264e+01
350.000      2.76597e+01
351.000      2.74503e+01
352.000      2.70795e+01
353.000      2.65347e+01
354.000      2.58126e+01
355.000      2.49210e+01
356.000      2.38785e+01
357.000      2.27117e+01
358.000      2.14500e+01
359.000      2.01210e+01
360.000      1.87479e+01
361.000      1.73504e+01
362.000      1.59472e+01
363.000      1.45601e+01
364.000      1.32159e+01
365.000      1.19455e+01
366.000      1.07806e+01
367.000      9.74921e+00
368.000      8.87172e+00
369.000      8.15879e+00
370.000      7.61101e+00
371.000      7.21990e+00
372.000      6.96977e+00
373.000      6.84027e+00
374.000      6.81016e+00
375.000      6.86218e+00
376.000      6.98811e+00
377.000      7.19242e+00
378.000      7.49225e+00
379.000      7.91278e+00
380.000      8.47886e+00
381.000      9.20519e+00
382.000      1.00885e+01
383.000      1.11042e+01
384.000      1.22082e+01
385.000      1.33427e+01
386.000      1.44431e+01
387.000      1.54437e+01
388.000      1.62802e+01
389.000      1.68915e+01
390.000      1.72200e+01
391.000      1.72161e+01
392.000      1.68453e+01
393.000      1.60979e+01
394.000      1.49981e+01
395.000      1.36077e+01
396.000      1.20223e+01
397.000      1.03595e+01
398.000      8.74095e+00
399.000      7.27412e+00
400.000      6.03712e+00
401.000      5.07073e+00
402.000      4.37799e+00
403.000      3.93028e+00
404.000      3.67721e+00
405.000      3.55792e+00
406.000      3.51145e+00
407.000      3.48498e+00
408.000      3.43914e+00
409.000      3.35034e+00
410.000      3.21036e+00
411.000      3.02380e+00
412.000      2.80428e+00
413.000      2.57005e+00
414.000      2.33969e+00
415.000      2.12852e+00
416.000      1.94599e+00
417.000      1.79476e+00
418.000      1.67160e+00
419.000      1.56992e+00
420.000      1.48313e+00
421.000      1.40741e+00
422.000      1.34274e+00
423.000      1.29162e+00
424.000      1.25615e+00
425.000      1.23477e+00
426.000      1.22054e+00
427.000      1.20189e+00
428.000      1.16570e+00
429.000      1.10146e+00
430.000      1.00483e+00
431.000      8.79058e-01
432.000      7.34000e-01
433.000      5.83109e-01
434.000      4.39825e-01
435.000      3.14565e-01
436.000      2.13146e-01
437.000      1.36756e-01
438.000      8.30566e-02
439.000      4.77388e-02
440.000      2.59645e-02
441.000      1.33618e-02
442.000      6.50588e-03
443.000      2.99700e-03
444.000      1.30617e-03
445.000      5.38564e-04
446.000      2.10087e-04
447.000      7.75321e-05
448.000      2.70698e-05
449.000      8.94141e-06
450.000      2.79413e-06
451.000      8.26046e-07
452.000      2.31036e-07
453.000      6.11328e-08
454.000      1.53033e-08
455.000      3.62423e-09
456.000      8.12012e-10
457.000      1.72118e-10
458.000      3.45151e-11
459.000      6.54801e-12
460.000      1.17524e-12
461.000      1.99555e-13
462.000      3.20564e-14
463.000      4.87175e-15
464.000      7.00443e-16
465.000      9.52748e-17
466.000      1.22603e-17
467.000      1.49259e-18
468.000      1.71910e-19
469.000      1.87316e-20
470.000      1.93094e-21
471.000      1.88313e-22
472.000      1.73744e-23
473.000      1.51655e-24
474.000      1.25233e-25
475.000      9.78365e-27
476.000      7.23103e-28
477.000      5.05611e-29
478.000      3.34465e-30
479.000      2.09316e-31
480.000      1.23929e-32
481.000      6.94160e-34
482.000      3.67844e-35
483.000      1.84411e-36
484.000      8.74634e-38
485.000      3.92449e-39
486.000      1.66594e-40
487.000      6.69039e-42
488.000      2.54192e-43
489.000      9.13671e-45
490.000      3.10696e-46
491.000      9.99536e-48
492.000      3.04214e-49
493.000      8.75946e-51
494.000      2.38612e-52
495.000      6.14931e-54
496.000      1.49926e-55
497.000      3.45817e-57
498.000      7.54628e-59
499.000      1.55789e-60
500.000      3.04269e-62
