# Gaussian folded, width=10 cm^-1
# [cm^-1] arbitrary
0.000      3.00000e+00
1.000      2.91796e+00
2.000      2.68508e+00
3.000      2.33749e+00
4.000      1.92514e+00
5.000      1.50000e+00
6.000      1.10570e+00
7.000      7.71085e-01
8.000      5.08727e-01
9.000      3.17530e-01
10.000      1.87500e-01
11.000      1.04746e-01
12.000      5.53599e-02
13.000      2.76826e-02
14.000      1.31035e-02
15.000      5.89205e-03
16.000      2.57875e-03
17.000      1.27244e-03
18.000      1.12811e-03
19.000      2.05556e-03
20.000      4.69913e-03
21.000      1.07068e-02
22.000      2.33072e-02
23.000      4.81842e-02
24.000      9.45403e-02
25.000      1.76065e-01
26.000      3.11295e-01
27.000      5.22659e-01
28.000      8.33527e-01
29.000      1.26294e+00
30.000      1.81849e+00
31.000      2.48889e+00
32.000      3.23862e+00
33.000      4.00731e+00
34.000      4.71581e+00
35.000      5.27870e+00
36.000      5.62085e+00
37.000      5.69384e+00
38.000      5.48707e+00
39.000      5.03030e+00
40.000      4.38671e+00
41.000      3.63868e+00
42.000      2.87083e+00
43.000      2.15506e+00
44.000      1.54130e+00
45.000      1.05529e+00
46.000      7.02490e-01
47.000      4.75700e-01
48.000      3.63556e-01
49.000      3.57516e-01
50.000      4.55792e-01
51.000      6.63560e-01
52.000      9.89565e-01
53.000      1.43986e+00
54.000      2.01020e+00
55.000      2.67907e+00
56.000      3.40392e+00
57.000      4.12236e+00
58.000      4.75944e+00
59.000      5.23981e+00
60.000      5.50214e+00
61.000      5.51187e+00
62.000      5.26864e+00
63.000      4.80625e+00
64.000      4.18529e+00
65.000      3.48079e+00
66.000      2.76853e+00
67.000      2.11379e+00
68.000      1.56474e+00
69.000      1.15136e+00
70.000      8.88527e-01
71.000      7.81115e-01
72.000      8.28571e-01
73.000      1.02713e+00
74.000      1.36900e+00
75.000      1.83912e+00
76.000      2.41142e+00
77.000      3.04661e+00
78.000      3.69352e+00
79.000      4.29479e+00
80.000      4.79616e+00
81.000      5.15731e+00
82.000      5.36150e+00
83.000      5.42128e+00
84.000      5.37859e+00
85.000      5.29898e+00
86.000      5.26099e+00
87.000      5.34286e+00
88.000      5.60904e+00
89.000      6.09901e+00
90.000      6.82036e+00
91.000      7.74748e+00
92.000      8.82598e+00
93.000      9.98193e+00
94.000      1.11340e+01
95.000      1.22055e+01
96.000      1.31343e+01
97.000      1.38778e+01
98.000      1.44124e+01
99.000      1.47298e+01
100.000      1.48306e+01
101.000      1.47195e+01
102.000      1.44030e+01
103.000      1.38910e+01
104.000      1.32006e+01
105.000      1.23604e+01
106.000      1.14127e+01
107.000      1.04128e+01
108.000      9.42501e+00
109.000      8.51614e+00
110.000      7.74930e+00
111.000      7.17785e+00
112.000      6.84114e+00
113.000      6.76184e+00
114.000      6.94445e+00
115.000      7.37476e+00
116.000      8.02063e+00
117.000      8.83420e+00
118.000      9.75636e+00
119.000      1.07230e+01
120.000      1.16725e+01
121.000      1.25523e+01
122.000      1.33240e+01
123.000      1.39651e+01
124.000      1.44673e+01
125.000      1.48333e+01
126.000      1.50730e+01
127.000      1.52010e+01
128.000      1.52346e+01
129.000      1.51943e+01
130.000      1.51027e+01
131.000      1.49839e+01
132.000      1.48603e+01
133.000      1.47488e+01
134.000      1.46566e+01
135.000      1.45778e+01
136.000      1.44932e+01
137.000      1.43737e+01
138.000      1.41867e+01
139.000      1.39045e+01
140.000      1.35122e+01
141.000      1.30128e+01
142.000      1.24275e+01
143.000      1.17915e+01
144.000      1.11457e+01
145.000      1.05286e+01
146.000      9.96901e+00
147.000      9.48278e+00
148.000      9.07265e+00
149.000      8.73092e+00
150.000      8.44356e+00
151.000      8.19463e+00
152.000      7.97022e+00
153.000      7.76154e+00
154.000      7.56639e+00
155.000      7.38877e+00
156.000      7.23640e+00
157.000      7.11676e+00
158.000      7.03314e+00
159.000      6.98205e+00
160.000      6.95310e+00
161.000      6.93139e+00
162.000      6.90108e+00
163.000      6.84878e+00
164.000      6.76538e+00
165.000      6.64617e+00
166.000      6.49012e+00
167.000      6.29948e+00
168.000      6.08067e+00
169.000      5.84599e+00
170.000      5.61510e+00
171.000      5.41460e+00
172.000      5.27489e+00
173.000      5.22470e+00
174.000      5.28466e+00
175.000      5.46209e+00
176.000      5.74846e+00
177.000      6.12027e+00
178.000      6.54308e+00
179.000      6.97767e+00
180.000      7.38728e+00
181.000      7.74451e+00
182.000      8.03665e+00
183.000      8.26802e+00
184.000      8.45842e+00
185.000      8.63755e+00
186.000      8.83645e+00
187.000      9.07818e+00
188.000      9.37069e+00
189.000      9.70399e+00
190.000      1.00531e+01
191.000      1.03854e+01
192.000      1.06712e+01
193.000      1.08920e+01
194.000      1.10465e+01
195.000      1.11503e+01
196.000      1.12313e+01
197.000      1.13218e+01
198.000      1.14497e+01
199.000      1.16320e+01
200.000      1.18716e+01
201.000      1.21572e+01
202.000      1.24665e+01
203.000      1.27703e+01
204.000      1.30381e+01
205.000      1.32419e+01
206.000      1.33592e+01
207.000      1.33753e+01
208.000      1.32836e+01
209.000      1.30860e+01
210.000      1.27925e+01
211.000      1.24210e+01
212.000      1.19968e+01
213.000      1.15517e+01
214.000      1.11228e+01
215.000      1.07501e+01
216.000      1.04724e+01
217.000      1.03229e+01
218.000      1.03242e+01
219.000      1.04840e+01
220.000      1.07930e+01
221.000      1.12262e+01
222.000      1.17467e+01
223.000      1.23122e+01
224.000      1.28828e+01
225.000      1.34264e+01
226.000      1.39213e+01
227.000      1.43549e+01
228.000      1.47198e+01
229.000      1.50082e+01
230.000      1.52088e+01
231.000      1.53065e+01
232.000      1.52864e+01
233.000      1.51409e+01
234.000      1.48765e+01
235.000      1.45191e+01
236.000      1.41124e+01
237.000      1.37116e+01
238.000      1.33707e+01
239.000      1.31299e+01
240.000      1.30055e+01
241.000      1.29865e+01
242.000      1.30391e+01
243.000      1.31161e+01
244.000      1.31688e+01
245.000      1.31566e+01
246.000      1.30533e+01
247.000      1.28482e+01
248.000      1.25435e+01
249.000      1.21501e+01
250.000      1.16828e+01
251.000      1.11573e+01
252.000      1.05883e+01
253.000      9.99008e+00
254.000      9.37790e+00
255.000      8.76994e+00
256.000      8.18748e+00
257.000      7.65322e+00
258.000      7.18773e+00
259.000      6.80504e+00
260.000      6.50896e+00
261.000      6.29147e+00
262.000      6.13335e+00
263.000      6.00714e+00
264.000      5.88131e+00
265.000      5.72521e+00
266.000      5.51377e+00
267.000      5.23180e+00
268.000      4.87709e+00
269.000      4.46190e+00
270.000      4.01237e+00
271.000      3.56561e+00
272.000      3.16492e+00
273.000      2.85362e+00
274.000      2.66868e+00
275.000      2.63519e+00
276.000      2.76269e+00
277.000      3.04388e+00
278.000      3.45602e+00
279.000      3.96445e+00
280.000      4.52742e+00
281.000      5.10123e+00
282.000      5.64467e+00
283.000      6.12234e+00
284.000      6.50676e+00
285.000      6.77974e+00
286.000      6.93317e+00
287.000      6.96960e+00
288.000      6.90203e+00
289.000      6.75253e+00
290.000      6.54956e+00
291.000      6.32419e+00
292.000      6.10616e+00
293.000      5.92066e+00
294.000      5.78613e+00
295.000      5.71273e+00
296.000      5.70102e+00
297.000      5.74081e+00
298.000      5.81081e+00
299.000      5.88067e+00
300.000      5.91606e+00
301.000      5.88669e+00
302.000      5.77481e+00
303.000      5.58154e+00
304.000      5.32842e+00
305.000      5.05355e+00
306.000      4.80379e+00
307.000      4.62557e+00
308.000      4.55725e+00
309.000      4.62439e+00
310.000      4.83799e+00
311.000      5.19476e+00
312.000      5.67827e+00
313.000      6.26072e+00
314.000      6.90566e+00
315.000      7.57227e+00
316.000      8.22121e+00
317.000      8.82129e+00
318.000      9.35491e+00
319.000      9.82092e+00
320.000      1.02336e+01
321.000      1.06180e+01
322.000      1.10034e+01
323.000      1.14167e+01
324.000      1.18769e+01
325.000      1.23929e+01
326.000      1.29632e+01
327.000      1.35786e+01
328.000      1.42252e+01
329.000      1.48888e+01
330.000      1.55578e+01
331.000      1.62267e+01
332.000      1.68961e+01
333.000      1.75722e+01
334.000      1.82624e+01
335.000      1.89707e+01
336.000      1.96919e+01
337.000      2.04087e+01
338.000      2.10915e+01
339.000      2.17019e+01
340.000      2.22002e+01
341.000      2.25533e+01
342.000      2.27423e+01
343.000      2.27660e+01
344.000      2.26398e+01
345.000      2.23897e+01
346.000      2.20439e+01
347.000      2.16249e+01
348.000      2.11451e+01
349.000      2.06070e+01
350.000      2.00079e+01
351.000      1.93467e+01
352.000      1.86291e+01
353.000      1.78694e+01
354.000      1.70877e+01
355.000      1.63050e+01
356.000      1.55375e+01
357.000      1.47946e+01
358.000      1.40788e+01
359.000      1.33899e+01
360.000      1.27281e+01
361.000      1.20971e+01
362.000      1.15032e+01
363.000      1.09529e+01
364.000      1.04494e+01
365.000      9.98982e+00
366.000      9.56504e+00
367.000      9.16152e+00
368.000      8.76486e+00
369.000      8.36347e+00
370.000      7.95128e+00
371.000      7.52906e+00
372.000      7.10430e+00
373.000      6.69029e+00
374.000      6.30481e+00
375.000      5.96865e+00
376.000      5.70392e+00
377.000      5.53230e+00
378.000      5.47300e+00
379.000      5.54059e+00
380.000      5.74262e+00
381.000      6.07688e+00
382.000      6.52857e+00
383.000      7.06793e+00
384.000      7.64969e+00
385.000      8.21541e+00
386.000      8.69960e+00
387.000      9.03908e+00
388.000      9.18380e+00
389.000      9.10641e+00
390.000      8.80780e+00
391.000      8.31705e+00
392.000      7.68540e+00
393.000      6.97611e+00
394.000      6.25244e+00
395.000      5.56695e+00
396.000      4.95424e+00
397.000      4.42874e+00
398.000      3.98723e+00
399.000      3.61494e+00
400.000      3.29283e+00
401.000      3.00386e+00
402.000      2.73652e+00
403.000      2.48536e+00
404.000      2.24948e+00
405.000      2.03047e+00
406.000      1.83106e+00
407.000      1.65473e+00
408.000      1.50556e+00
409.000      1.38756e+00
410.000      1.30289e+00
411.000      1.24961e+00
412.000      1.22005e+00
413.000      1.20110e+00
414.000      1.17665e+00
415.000      1.13170e+00
416.000      1.05647e+00
417.000      9.49014e-01
418.000      8.15375e-01
419.000      6.67375e-01
420.000      5.19022e-01
421.000      3.82907e-01
422.000      2.67699e-01
423.000      1.77243e-01
424.000      1.11093e-01
425.000      6.59012e-02
426.000      3.69934e-02
427.000      1.96489e-02
428.000      9.87440e-03
429.000      4.69489e-03
430.000      2.11190e-03
431.000      8.98768e-04
432.000      3.61865e-04
433.000      1.37837e-04
434.000      4.96712e-05
435.000      1.69341e-05
436.000      5.46185e-06
437.000      1.66661e-06
438.000      4.81113e-07
439.000      1.31395e-07
440.000      3.39490e-08
441.000      8.29836e-09
442.000      1.91900e-09
443.000      4.19834e-10
444.000      8.68953e-11
445.000      1.70150e-11
446.000      3.15200e-12
447.000      5.52406e-13
448.000      9.15900e-14
449.000      1.43666e-14
450.000      2.13196e-15
451.000      2.99310e-16
452.000      3.97540e-17
453.000      4.99526e-18
454.000      5.93818e-19
455.000      6.67830e-20
456.000      7.10552e-21
457.000      7.15227e-22
458.000      6.81097e-23
459.000      6.13609e-24
460.000      5.22989e-25
461.000      4.21707e-26
462.000      3.21697e-27
463.000      2.32167e-28
464.000      1.58515e-29
465.000      1.02390e-30
466.000      6.25699e-32
467.000      3.61734e-33
468.000      1.97847e-34
469.000      1.02374e-35
470.000      5.01148e-37
471.000      2.32092e-38
472.000      1.01688e-39
473.000      4.21503e-41
474.000      1.65291e-42
475.000      6.13215e-44
476.000      2.15226e-45
477.000      7.14652e-47
478.000      2.24498e-48
479.000      6.67185e-50
480.000      1.87585e-51
481.000      4.98964e-53
482.000      1.25562e-54
483.000      2.98925e-56
484.000      6.73264e-58
485.000      1.43458e-59
486.000      2.89190e-61
487.000      5.51518e-63
488.000      9.95069e-65
489.000      1.69849e-66
490.000      2.74279e-68
491.000      4.19024e-70
492.000      6.05623e-72
493.000      8.28102e-74
494.000      1.07123e-75
495.000      1.31099e-77
496.000      1.51787e-79
497.000      1.66259e-81
498.000      1.72288e-83
499.000      1.68905e-85
500.000      1.56656e-87
