# Gaussian folded, width=10 cm^-1
# [cm^-1] arbitrary
0.000      3.00000e+00
1.000      2.91796e+00
2.000      2.68508e+00
3.000      2.33749e+00
4.000      1.92514e+00
5.000      1.50000e+00
6.000      1.10570e+00
7.000      7.71085e-01
8.000      5.08727e-01
9.000      3.17530e-01
10.000      1.87503e-01
11.000      1.04756e-01
12.000      5.53926e-02
13.000      2.77819e-02
14.000      1.33889e-02
15.000      6.66857e-03
16.000      4.57804e-03
17.000      6.14274e-03
18.000      1.23514e-02
19.000      2.65168e-02
20.000      5.51090e-02
21.000      1.08900e-01
22.000      2.04013e-01
23.000      3.62185e-01
24.000      6.09304e-01
25.000      9.71377e-01
26.000      1.46762e+00
27.000      2.10152e+00
28.000      2.85213e+00
29.000      3.66891e+00
30.000      4.47360e+00
31.000      5.17062e+00
32.000      5.66511e+00
33.000      5.88392e+00
34.000      5.79341e+00
35.000      5.40800e+00
36.000      4.78671e+00
37.000      4.01891e+00
38.000      3.20436e+00
39.000      2.43410e+00
40.000      1.77757e+00
41.000      1.27847e+00
42.000      9.58235e-01
43.000      8.23800e-01
44.000      8.75160e-01
45.000      1.10943e+00
46.000      1.51977e+00
47.000      2.08992e+00
48.000      2.78703e+00
49.000      3.55655e+00
50.000      4.32271e+00
51.000      4.99637e+00
52.000      5.48951e+00
53.000      5.73268e+00
54.000      5.69037e+00
55.000      5.36918e+00
56.000      4.81618e+00
57.000      4.10792e+00
58.000      3.33388e+00
59.000      2.57942e+00
60.000      1.91309e+00
61.000      1.38104e+00
62.000      1.00823e+00
63.000      8.04527e-01
64.000      7.71880e-01
65.000      9.09584e-01
66.000      1.21553e+00
67.000      1.68324e+00
68.000      2.29637e+00
69.000      3.02335e+00
70.000      3.81576e+00
71.000      4.61248e+00
72.000      5.35024e+00
73.000      5.97826e+00
74.000      6.47254e+00
75.000      6.84483e+00
76.000      7.14213e+00
77.000      7.43592e+00
78.000      7.80366e+00
79.000      8.30841e+00
80.000      8.98276e+00
81.000      9.82219e+00
82.000      1.07889e+01
83.000      1.18240e+01
84.000      1.28622e+01
85.000      1.38435e+01
86.000      1.47190e+01
87.000      1.54496e+01
88.000      1.60014e+01
89.000      1.63422e+01
90.000      1.64419e+01
91.000      1.62785e+01
92.000      1.58454e+01
93.000      1.51587e+01
94.000      1.42595e+01
95.000      1.32112e+01
96.000      1.20929e+01
97.000      1.09917e+01
98.000      9.99440e+00
99.000      9.18202e+00
100.000      8.62390e+00
101.000      8.37229e+00
102.000      8.45630e+00
103.000      8.87630e+00
104.000      9.60046e+00
105.000      1.05656e+01
106.000      1.16835e+01
107.000      1.28539e+01
108.000      1.39798e+01
109.000      1.49843e+01
110.000      1.58213e+01
111.000      1.64784e+01
112.000      1.69699e+01
113.000      1.73231e+01
114.000      1.75630e+01
115.000      1.77014e+01
116.000      1.77350e+01
117.000      1.76510e+01
118.000      1.74389e+01
119.000      1.71014e+01
120.000      1.66605e+01
121.000      1.61561e+01
122.000      1.56384e+01
123.000      1.51571e+01
124.000      1.47506e+01
125.000      1.44396e+01
126.000      1.42250e+01
127.000      1.40904e+01
128.000      1.40082e+01
129.000      1.39467e+01
130.000      1.38754e+01
131.000      1.37703e+01
132.000      1.36150e+01
133.000      1.34020e+01
134.000      1.31314e+01
135.000      1.28088e+01
136.000      1.24422e+01
137.000      1.20380e+01
138.000      1.15982e+01
139.000      1.11179e+01
140.000      1.05865e+01
141.000      9.99136e+00
142.000      9.32358e+00
143.000      8.58390e+00
144.000      7.78683e+00
145.000      6.96094e+00
146.000      6.14470e+00
147.000      5.37867e+00
148.000      4.69622e+00
149.000      4.11589e+00
150.000      3.63804e+00
151.000      3.24712e+00
152.000      2.91908e+00
153.000      2.63133e+00
154.000      2.37200e+00
155.000      2.14544e+00
156.000      1.97242e+00
157.000      1.88542e+00
158.000      1.92058e+00
159.000      2.10896e+00
160.000      2.46898e+00
161.000      3.00149e+00
162.000      3.68767e+00
163.000      4.49006e+00
164.000      5.35654e+00
165.000      6.22787e+00
166.000      7.04878e+00
167.000      7.78159e+00
168.000      8.41908e+00
169.000      8.99197e+00
170.000      9.56590e+00
171.000      1.02256e+01
172.000      1.10486e+01
173.000      1.20766e+01
174.000      1.32942e+01
175.000      1.46244e+01
176.000      1.59436e+01
177.000      1.71124e+01
178.000      1.80122e+01
179.000      1.85749e+01
180.000      1.87977e+01
181.000      1.87386e+01
182.000      1.84962e+01
183.000      1.81797e+01
184.000      1.78797e+01
185.000      1.76464e+01
186.000      1.74818e+01
187.000      1.73485e+01
188.000      1.71938e+01
189.000      1.69812e+01
190.000      1.67214e+01
191.000      1.64902e+01
192.000      1.64243e+01
193.000      1.66945e+01
194.000      1.74600e+01
195.000      1.88180e+01
196.000      2.07640e+01
197.000      2.31775e+01
198.000      2.58374e+01
199.000      2.84648e+01
200.000      3.07794e+01
201.000      3.25540e+01
202.000      3.36509e+01
203.000      3.40334e+01
204.000      3.37539e+01
205.000      3.29251e+01
206.000      3.16868e+01
207.000      3.01765e+01
208.000      2.85101e+01
209.000      2.67722e+01
210.000      2.50161e+01
211.000      2.32705e+01
212.000      2.15493e+01
213.000      1.98628e+01
214.000      1.82254e+01
215.000      1.66590e+01
216.000      1.51892e+01
217.000      1.38379e+01
218.000      1.26149e+01
219.000      1.15129e+01
220.000      1.05091e+01
221.000      9.57269e+00
222.000      8.67600e+00
223.000      7.80688e+00
224.000      6.97763e+00
225.000      6.22869e+00
226.000      5.62559e+00
227.000      5.24954e+00
228.000      5.18322e+00
229.000      5.49446e+00
230.000      6.22120e+00
231.000      7.36097e+00
232.000      8.86724e+00
233.000      1.06538e+01
234.000      1.26068e+01
235.000      1.46015e+01
236.000      1.65219e+01
237.000      1.82787e+01
238.000      1.98212e+01
239.000      2.11412e+01
240.000      2.22665e+01
241.000      2.32450e+01
242.000      2.41236e+01
243.000      2.49266e+01
244.000      2.56406e+01
245.000      2.62110e+01
246.000      2.65508e+01
247.000      2.65606e+01
248.000      2.61538e+01
249.000      2.52791e+01
250.000      2.39360e+01
251.000      2.21771e+01
252.000      2.00997e+01
253.000      1.78285e+01
254.000      1.54953e+01
255.000      1.32208e+01
256.000      1.11022e+01
257.000      9.20812e+00
258.000      7.58008e+00
259.000      6.23777e+00
260.000      5.18591e+00
261.000      4.42000e+00
262.000      3.93046e+00
263.000      3.70546e+00
264.000      3.73340e+00
265.000      4.00583e+00
266.000      4.52018e+00
267.000      5.28105e+00
268.000      6.29806e+00
269.000      7.57956e+00
270.000      9.12295e+00
271.000      1.09046e+01
272.000      1.28731e+01
273.000      1.49491e+01
274.000      1.70330e+01
275.000      1.90187e+01
276.000      2.08077e+01
277.000      2.23207e+01
278.000      2.35012e+01
279.000      2.43122e+01
280.000      2.47300e+01
281.000      2.47384e+01
282.000      2.43289e+01
283.000      2.35065e+01
284.000      2.22979e+01
285.000      2.07590e+01
286.000      1.89752e+01
287.000      1.70539e+01
288.000      1.51102e+01
289.000      1.32508e+01
290.000      1.15595e+01
291.000      1.00888e+01
292.000      8.85895e+00
293.000      7.86265e+00
294.000      7.07371e+00
295.000      6.45650e+00
296.000      5.97413e+00
297.000      5.59419e+00
298.000      5.29146e+00
299.000      5.04787e+00
300.000      4.85028e+00
301.000      4.68730e+00
302.000      4.54651e+00
303.000      4.41363e+00
304.000      4.27429e+00
305.000      4.11797e+00
306.000      3.94244e+00
307.000      3.75624e+00
308.000      3.57769e+00
309.000      3.42975e+00
310.000      3.33256e+00
311.000      3.29634e+00
312.000      3.31761e+00
313.000      3.38032e+00
314.000      3.46153e+00
315.000      3.53902e+00
316.000      3.59790e+00
317.000      3.63324e+00
318.000      3.64831e+00
319.000      3.64932e+00
320.000      3.63969e+00
321.000      3.61642e+00
322.000      3.57030e+00
323.000      3.48958e+00
324.000      3.36525e+00
325.000      3.19538e+00
326.000      2.98649e+00
327.000      2.75159e+00
328.000      2.50581e+00
329.000      2.26170e+00
330.000      2.02610e+00
331.000      1.79983e+00
332.000      1.57979e+00
333.000      1.36244e+00
334.000      1.14680e+00
335.000      9.35898e-01
336.000      7.36181e-01
337.000      5.55465e-01
338.000      4.00511e-01
339.000      2.75192e-01
340.000      1.79815e-01
341.000      1.11568e-01
342.000      6.56616e-02
343.000      3.66283e-02
344.000      1.93563e-02
345.000      9.68630e-03
346.000      4.58890e-03
347.000      2.05773e-03
348.000      8.73253e-04
349.000      3.50685e-04
350.000      1.33258e-04
351.000      4.79115e-05
352.000      1.62985e-05
353.000      5.24566e-06
354.000      1.59732e-06
355.000      4.60170e-07
356.000      1.25422e-07
357.000      3.23409e-08
358.000      7.88961e-09
359.000      1.82088e-09
360.000      3.97582e-10
361.000      8.21281e-11
362.000      1.60500e-11
363.000      2.96742e-12
364.000      5.19041e-13
365.000      8.58898e-14
366.000      1.34462e-14
367.000      1.99148e-15
368.000      2.79042e-16
369.000      3.69897e-17
370.000      4.63885e-18
371.000      5.50373e-19
372.000      6.17762e-20
373.000      6.56000e-21
374.000      6.59028e-22
375.000      6.26356e-23
376.000      5.63192e-24
377.000      4.79081e-25
378.000      3.85549e-26
379.000      2.93540e-27
380.000      2.11433e-28
381.000      1.44077e-29
382.000      9.28831e-31
383.000      5.66494e-32
384.000      3.26867e-33
385.000      1.78429e-34
386.000      9.21459e-36
387.000      4.50199e-37
388.000      2.08090e-38
389.000      9.09945e-40
390.000      3.76441e-41
391.000      1.47332e-42
392.000      5.45523e-44
393.000      1.91094e-45
394.000      6.33285e-47
395.000      1.98549e-48
396.000      5.88919e-50
397.000      1.65257e-51
398.000      4.38716e-53
399.000      1.10185e-54
400.000      2.61807e-56
401.000      5.88513e-58
402.000      1.25155e-59
403.000      2.51802e-61
404.000      4.79277e-63
405.000      8.63043e-65
406.000      1.47027e-66
407.000      2.36961e-68
408.000      3.61306e-70
409.000      5.21184e-72
410.000      7.11254e-74
411.000      9.18281e-76
412.000      1.12162e-77
413.000      1.29608e-79
414.000      1.41689e-81
415.000      1.46540e-83
416.000      1.43382e-85
417.000      1.32725e-87
418.000      1.16232e-89
419.000      9.62984e-92
420.000      7.54794e-94
421.000      5.59700e-96
422.000      3.92645e-98
423.000     2.60593e-100
424.000     1.63622e-102
425.000     9.71942e-105
426.000     5.46205e-107
427.000     2.90395e-109
428.000     1.46063e-111
429.000     6.95035e-114
430.000     3.12891e-116
431.000     1.33259e-118
432.000     5.36929e-121
433.000     2.04670e-123
434.000     7.38093e-126
435.000     2.51817e-128
436.000     8.12785e-131
437.000     2.48190e-133
438.000     7.16986e-136
439.000     1.95954e-138
440.000     5.06660e-141
441.000     1.23935e-143
442.000     2.86809e-146
443.000     6.27924e-149
444.000     1.30059e-151
445.000     2.54852e-154
446.000     4.72450e-157
447.000     8.28592e-160
448.000     1.37481e-162
449.000     2.15806e-165
450.000     3.20480e-168
451.000     4.50252e-171
452.000     5.98451e-174
453.000     7.52522e-177
454.000     8.95214e-180
455.000     1.00752e-182
456.000     1.07274e-185
457.000     1.08058e-188
458.000     1.02976e-191
459.000     9.28391e-195
460.000     7.91853e-198
461.000     6.38963e-201
462.000     4.87781e-204
463.000     3.52282e-207
464.000     2.40699e-210
465.000     1.55588e-213
466.000     9.51472e-217
467.000     5.50469e-220
468.000     3.01292e-223
469.000     1.56012e-226
470.000     7.64273e-230
471.000     3.54206e-233
472.000     1.55303e-236
473.000     6.44204e-240
474.000     2.52804e-243
475.000     9.38557e-247
476.000     3.29652e-250
477.000     1.09539e-253
478.000     3.44349e-257
479.000     1.02411e-260
480.000     2.88146e-264
481.000     7.67001e-268
482.000     1.93151e-271
483.000     4.60167e-275
484.000     1.03717e-278
485.000     2.21159e-282
486.000     4.46145e-286
487.000     8.51462e-290
488.000     1.53735e-293
489.000     2.62600e-297
490.000     4.24363e-301
491.000     6.48778e-305
492.000     9.38368e-309
493.000     1.28401e-312
494.000     1.66219e-316
495.000     2.03555e-320
496.000      0.00000e+00
497.000      0.00000e+00
498.000      0.00000e+00
499.000      0.00000e+00
500.000      0.00000e+00
