# Gaussian folded, width=10 cm^-1
# [cm^-1] arbitrary
0.000      3.00000e+00
1.000      2.91796e+00
2.000      2.68508e+00
3.000      2.33749e+00
4.000      1.92514e+00
5.000      1.50000e+00
6.000      1.10570e+00
7.000      7.71085e-01
8.000      5.08727e-01
9.000      3.17529e-01
10.000      1.87500e-01
11.000      1.04746e-01
12.000      5.53591e-02
13.000      2.76797e-02
14.000      1.30941e-02
15.000      5.86242e-03
16.000      2.49088e-03
17.000      1.02581e-03
18.000      4.73051e-04
19.000      4.09279e-04
20.000      7.84492e-04
21.000      1.90061e-03
22.000      4.56957e-03
23.000      1.04808e-02
24.000      2.28188e-02
25.000      4.71389e-02
26.000      9.24114e-02
27.000      1.71963e-01
28.000      3.03827e-01
29.000      5.09826e-01
30.000      8.12734e-01
31.000      1.23122e+00
32.000      1.77304e+00
33.000      2.42788e+00
34.000      3.16220e+00
35.000      3.91857e+00
36.000      4.62119e+00
37.000      5.18763e+00
38.000      5.54442e+00
39.000      5.64264e+00
40.000      5.46881e+00
41.000      5.04791e+00
42.000      4.43749e+00
43.000      3.71493e+00
44.000      2.96149e+00
45.000      2.24786e+00
46.000      1.62449e+00
47.000      1.11821e+00
48.000      7.34610e-01
49.000      4.64259e-01
50.000      2.90296e-01
51.000      1.95504e-01
52.000      1.67624e-01
53.000      2.02462e-01
54.000      3.04725e-01
55.000      4.86614e-01
56.000      7.64209e-01
57.000      1.15186e+00
58.000      1.65524e+00
59.000      2.26460e+00
60.000      2.95003e+00
61.000      3.66101e+00
62.000      4.33127e+00
63.000      4.88869e+00
64.000      5.26819e+00
65.000      5.42422e+00
66.000      5.33960e+00
67.000      5.02836e+00
68.000      4.53213e+00
69.000      3.91145e+00
70.000      3.23460e+00
71.000      2.56693e+00
72.000      1.96279e+00
73.000      1.46162e+00
74.000      1.08785e+00
75.000      8.53764e-01
76.000      7.63571e-01
77.000      8.16918e-01
78.000      1.01056e+00
79.000      1.33769e+00
80.000      1.78546e+00
81.000      2.33183e+00
82.000      2.94340e+00
83.000      3.57566e+00
84.000      4.17653e+00
85.000      4.69304e+00
86.000      5.08034e+00
87.000      5.31094e+00
88.000      5.38224e+00
89.000      5.31992e+00
90.000      5.17592e+00
91.000      5.02043e+00
92.000      4.92926e+00
93.000      4.96916e+00
94.000      5.18464e+00
95.000      5.58977e+00
96.000      6.16727e+00
97.000      6.87479e+00
98.000      7.65673e+00
99.000      8.45749e+00
100.000      9.23259e+00
101.000      9.95441e+00
102.000      1.06116e+01
103.000      1.12029e+01
104.000      1.17288e+01
105.000      1.21833e+01
106.000      1.25497e+01
107.000      1.28013e+01
108.000      1.29076e+01
109.000      1.28425e+01
110.000      1.25932e+01
111.000      1.21653e+01
112.000      1.15832e+01
113.000      1.08873e+01
114.000      1.01281e+01
115.000      9.36010e+00
116.000      8.63654e+00
117.000      8.00519e+00
118.000      7.50449e+00
119.000      7.16020e+00
120.000      6.98322e+00
121.000      6.96991e+00
122.000      7.10552e+00
123.000      7.37006e+00
124.000      7.74456e+00
125.000      8.21467e+00
126.000      8.77000e+00
127.000      9.39927e+00
128.000      1.00835e+01
129.000      1.07913e+01
130.000      1.14786e+01
131.000      1.20951e+01
132.000      1.25945e+01
133.000      1.29459e+01
134.000      1.31415e+01
135.000      1.31974e+01
136.000      1.31480e+01
137.000      1.30357e+01
138.000      1.28997e+01
139.000      1.27683e+01
140.000      1.26548e+01
141.000      1.25590e+01
142.000      1.24706e+01
143.000      1.23735e+01
144.000      1.22499e+01
145.000      1.20844e+01
146.000      1.18675e+01
147.000      1.15986e+01
148.000      1.12877e+01
149.000      1.09545e+01
150.000      1.06237e+01
151.000      1.03190e+01
152.000      1.00558e+01
153.000      9.83668e+00
154.000      9.65076e+00
155.000      9.47697e+00
156.000      9.29008e+00
157.000      9.06741e+00
158.000      8.79428e+00
159.000      8.46693e+00
160.000      8.09304e+00
161.000      7.69030e+00
162.000      7.28389e+00
163.000      6.90331e+00
164.000      6.57870e+00
165.000      6.33672e+00
166.000      6.19636e+00
167.000      6.16526e+00
168.000      6.23758e+00
169.000      6.39410e+00
170.000      6.60486e+00
171.000      6.83388e+00
172.000      7.04512e+00
173.000      7.20849e+00
174.000      7.30457e+00
175.000      7.32737e+00
176.000      7.28458e+00
177.000      7.19532e+00
178.000      7.08588e+00
179.000      6.98421e+00
180.000      6.91411e+00
181.000      6.89001e+00
182.000      6.91336e+00
183.000      6.97156e+00
184.000      7.03990e+00
185.000      7.08665e+00
186.000      7.08044e+00
187.000      6.99809e+00
188.000      6.83073e+00
189.000      6.58629e+00
190.000      6.28751e+00
191.000      5.96633e+00
192.000      5.65653e+00
193.000      5.38707e+00
194.000      5.17792e+00
195.000      5.03916e+00
196.000      4.97278e+00
197.000      4.97571e+00
198.000      5.04271e+00
199.000      5.16810e+00
200.000      5.34629e+00
201.000      5.57164e+00
202.000      5.83858e+00
203.000      6.14227e+00
204.000      6.47954e+00
205.000      6.84909e+00
206.000      7.25014e+00
207.000      7.67958e+00
208.000      8.12850e+00
209.000      8.58001e+00
210.000      9.00990e+00
211.000      9.39040e+00
212.000      9.69636e+00
213.000      9.91161e+00
214.000      1.00333e+01
215.000      1.00726e+01
216.000      1.00519e+01
217.000      9.99838e+00
218.000      9.93674e+00
219.000      9.88237e+00
220.000      9.83741e+00
221.000      9.79060e+00
222.000      9.72124e+00
223.000      9.60633e+00
224.000      9.42880e+00
225.000      9.18471e+00
226.000      8.88715e+00
227.000      8.56554e+00
228.000      8.26037e+00
229.000      8.01444e+00
230.000      7.86282e+00
231.000      7.82400e+00
232.000      7.89467e+00
233.000      8.04971e+00
234.000      8.24774e+00
235.000      8.44093e+00
236.000      8.58645e+00
237.000      8.65615e+00
238.000      8.64154e+00
239.000      8.55260e+00
240.000      8.41123e+00
241.000      8.24201e+00
242.000      8.06362e+00
243.000      7.88406e+00
244.000      7.70066e+00
245.000      7.50434e+00
246.000      7.28594e+00
247.000      7.04198e+00
248.000      6.77794e+00
249.000      6.50789e+00
250.000      6.25098e+00
251.000      6.02601e+00
252.000      5.84615e+00
253.000      5.71557e+00
254.000      5.62933e+00
255.000      5.57635e+00
256.000      5.54423e+00
257.000      5.52388e+00
258.000      5.51188e+00
259.000      5.50964e+00
260.000      5.51984e+00
261.000      5.54209e+00
262.000      5.56994e+00
263.000      5.59085e+00
264.000      5.58913e+00
265.000      5.55043e+00
266.000      5.46570e+00
267.000      5.33281e+00
268.000      5.15510e+00
269.000      4.93788e+00
270.000      4.68463e+00
271.000      4.39490e+00
272.000      4.06512e+00
273.000      3.69191e+00
274.000      3.27657e+00
275.000      2.82853e+00
276.000      2.36641e+00
277.000      1.91613e+00
278.000      1.50692e+00
279.000      1.16698e+00
280.000      9.19973e-01
281.000      7.83249e-01
282.000      7.67439e-01
283.000      8.76535e-01
284.000      1.10768e+00
285.000      1.45050e+00
286.000      1.88661e+00
287.000      2.39028e+00
288.000      2.93103e+00
289.000      3.47786e+00
290.000      4.00398e+00
291.000      4.49017e+00
292.000      4.92558e+00
293.000      5.30592e+00
294.000      5.63039e+00
295.000      5.89947e+00
296.000      6.11503e+00
297.000      6.28273e+00
298.000      6.41519e+00
299.000      6.53318e+00
300.000      6.66336e+00
301.000      6.83247e+00
302.000      7.05998e+00
303.000      7.35239e+00
304.000      7.70176e+00
305.000      8.08926e+00
306.000      8.49225e+00
307.000      8.89207e+00
308.000      9.27949e+00
309.000      9.65571e+00
310.000      1.00293e+01
311.000      1.04107e+01
312.000      1.08062e+01
313.000      1.12148e+01
314.000      1.16277e+01
315.000      1.20316e+01
316.000      1.24131e+01
317.000      1.27640e+01
318.000      1.30846e+01
319.000      1.33847e+01
320.000      1.36833e+01
321.000      1.40060e+01
322.000      1.43824e+01
323.000      1.48433e+01
324.000      1.54167e+01
325.000      1.61235e+01
326.000      1.69717e+01
327.000      1.79507e+01
328.000      1.90281e+01
329.000      2.01509e+01
330.000      2.12529e+01
331.000      2.22669e+01
332.000      2.31382e+01
333.000      2.38364e+01
334.000      2.43597e+01
335.000      2.47322e+01
336.000      2.49937e+01
337.000      2.51872e+01
338.000      2.53474e+01
339.000      2.54937e+01
340.000      2.56299e+01
341.000      2.57482e+01
342.000      2.58365e+01
343.000      2.58852e+01
344.000      2.58917e+01
345.000      2.58619e+01
346.000      2.58078e+01
347.000      2.57428e+01
348.000      2.56765e+01
349.000      2.56095e+01
350.000      2.55316e+01
351.000      2.54226e+01
352.000      2.52557e+01
353.000      2.50028e+01
354.000      2.46401e+01
355.000      2.41512e+01
356.000      2.35280e+01
357.000      2.27703e+01
358.000      2.18833e+01
359.000      2.08766e+01
360.000      1.97629e+01
361.000      1.85594e+01
362.000      1.72880e+01
363.000      1.59754e+01
364.000      1.46514e+01
365.000      1.33468e+01
366.000      1.20902e+01
367.000      1.09065e+01
368.000      9.81576e+00
369.000      8.83375e+00
370.000      7.97322e+00
371.000      7.24506e+00
372.000      6.65928e+00
373.000      6.22542e+00
374.000      5.95260e+00
375.000      5.84911e+00
376.000      5.92168e+00
377.000      6.17446e+00
378.000      6.60773e+00
379.000      7.21671e+00
380.000      7.99081e+00
381.000      8.91327e+00
382.000      9.96129e+00
383.000      1.11060e+01
384.000      1.23125e+01
385.000      1.35390e+01
386.000      1.47361e+01
387.000      1.58463e+01
388.000      1.68046e+01
389.000      1.75399e+01
390.000      1.79807e+01
391.000      1.80625e+01
392.000      1.77393e+01
393.000      1.69959e+01
394.000      1.58567e+01
395.000      1.43898e+01
396.000      1.27006e+01
397.000      1.09181e+01
398.000      9.17426e+00
399.000      7.58327e+00
400.000      6.22522e+00
401.000      5.13819e+00
402.000      4.31976e+00
403.000      3.73650e+00
404.000      3.33793e+00
405.000      3.07094e+00
406.000      2.89097e+00
407.000      2.76767e+00
408.000      2.68483e+00
409.000      2.63586e+00
410.000      2.61738e+00
411.000      2.62367e+00
412.000      2.64382e+00
413.000      2.66197e+00
414.000      2.66008e+00
415.000      2.62165e+00
416.000      2.53512e+00
417.000      2.39606e+00
418.000      2.20810e+00
419.000      1.98257e+00
420.000      1.73714e+00
421.000      1.49350e+00
422.000      1.27423e+00
423.000      1.09898e+00
424.000      9.80802e-01
425.000      9.23156e-01
426.000      9.18802e-01
427.000      9.50914e-01
428.000      9.96508e-01
429.000      1.03147e+00
430.000      1.03587e+00
431.000      9.98153e-01
432.000      9.16941e-01
433.000      8.00203e-01
434.000      6.62122e-01
435.000      5.18929e-01
436.000      3.85008e-01
437.000      2.70332e-01
438.000      1.79606e-01
439.000      1.12902e-01
440.000      6.71469e-02
441.000      3.77814e-02
442.000      2.01120e-02
443.000      1.01287e-02
444.000      4.82581e-03
445.000      2.17524e-03
446.000      9.27599e-04
447.000      3.74225e-04
448.000      1.42831e-04
449.000      5.15738e-05
450.000      1.76179e-05
451.000      5.69374e-06
452.000      1.74083e-06
453.000      5.03542e-07
454.000      1.37794e-07
455.000      3.56734e-08
456.000      8.73725e-09
457.000      2.02452e-09
458.000      4.43802e-10
459.000      9.20391e-11
460.000      1.80582e-11
461.000      3.35191e-12
462.000      5.88611e-13
463.000      9.77873e-14
464.000      1.53693e-14
465.000      2.28530e-15
466.000      3.21477e-16
467.000      4.27833e-17
468.000      5.38662e-18
469.000      6.41617e-19
470.000      7.23024e-20
471.000      7.70810e-21
472.000      7.77427e-22
473.000      7.41805e-23
474.000      6.69634e-24
475.000      5.71877e-25
476.000      4.62046e-26
477.000      3.53171e-27
478.000      2.55390e-28
479.000      1.74719e-29
480.000      1.13082e-30
481.000      6.92409e-32
482.000      4.01099e-33
483.000      2.19815e-34
484.000      1.13967e-35
485.000      5.59013e-37
486.000      2.59406e-38
487.000      1.13882e-39
488.000      4.72989e-41
489.000      1.85850e-42
490.000      6.90862e-44
491.000      2.42962e-45
492.000      8.08355e-47
493.000      2.54439e-48
494.000      7.57676e-50
495.000      2.13452e-51
496.000      5.68900e-53
497.000      1.43446e-54
498.000      3.42183e-56
499.000      7.72228e-58
500.000      1.64873e-59
