# Gaussian folded, width=10 cm^-1
# [cm^-1] arbitrary
0.000      3.00000e+00
1.000      2.91796e+00
2.000      2.68508e+00
3.000      2.33749e+00
4.000      1.92514e+00
5.000      1.50000e+00
6.000      1.10570e+00
7.000      7.71085e-01
8.000      5.08727e-01
9.000      3.17530e-01
10.000      1.87503e-01
11.000      1.04755e-01
12.000      5.53907e-02
13.000      2.77766e-02
14.000      1.33748e-02
15.000      6.63280e-03
16.000      4.49298e-03
17.000      5.95280e-03
18.000      1.19537e-02
19.000      2.57374e-02
20.000      5.36820e-02
21.000      1.06466e-01
22.000      2.00160e-01
23.000      3.56558e-01
24.000      6.01784e-01
25.000      9.62311e-01
26.000      1.45802e+00
27.000      2.09311e+00
28.000      2.84713e+00
29.000      3.66959e+00
30.000      4.48152e+00
31.000      5.18603e+00
32.000      5.68652e+00
33.000      5.90833e+00
34.000      5.81692e+00
35.000      5.42687e+00
36.000      4.79829e+00
37.000      4.02222e+00
38.000      3.20006e+00
39.000      2.42398e+00
40.000      1.76375e+00
41.000      1.26268e+00
42.000      9.41395e-01
43.000      8.06001e-01
44.000      8.56047e-01
45.000      1.08884e+00
46.000      1.49839e+00
47.000      2.06971e+00
48.000      2.77119e+00
49.000      3.54889e+00
50.000      4.32655e+00
51.000      5.01328e+00
52.000      5.51837e+00
53.000      5.76958e+00
54.000      5.72941e+00
55.000      5.40398e+00
56.000      4.84151e+00
57.000      4.12090e+00
58.000      3.33427e+00
59.000      2.56910e+00
60.000      1.89494e+00
61.000      1.35787e+00
62.000      9.82202e-01
63.000      7.77211e-01
64.000      7.45015e-01
65.000      8.86111e-01
66.000      1.20038e+00
67.000      1.68333e+00
68.000      2.31928e+00
69.000      3.07495e+00
70.000      3.89709e+00
71.000      4.71718e+00
72.000      5.46364e+00
73.000      6.07884e+00
74.000      6.53583e+00
75.000      6.84858e+00
76.000      7.07128e+00
77.000      7.28611e+00
78.000      7.58263e+00
79.000      8.03515e+00
80.000      8.68514e+00
81.000      9.53327e+00
82.000      1.05425e+01
83.000      1.16495e+01
84.000      1.27799e+01
85.000      1.38615e+01
86.000      1.48324e+01
87.000      1.56427e+01
88.000      1.62519e+01
89.000      1.66260e+01
90.000      1.67365e+01
91.000      1.65643e+01
92.000      1.61064e+01
93.000      1.53828e+01
94.000      1.44405e+01
95.000      1.33504e+01
96.000      1.22002e+01
97.000      1.10828e+01
98.000      1.00849e+01
99.000      9.27877e+00
100.000      8.71729e+00
101.000      8.43319e+00
102.000      8.44016e+00
103.000      8.73458e+00
104.000      9.29694e+00
105.000      1.00929e+01
106.000      1.10742e+01
107.000      1.21813e+01
108.000      1.33474e+01
109.000      1.45039e+01
110.000      1.55873e+01
111.000      1.65441e+01
112.000      1.73341e+01
113.000      1.79300e+01
114.000      1.83150e+01
115.000      1.84805e+01
116.000      1.84251e+01
117.000      1.81576e+01
118.000      1.77006e+01
119.000      1.70949e+01
120.000      1.63993e+01
121.000      1.56857e+01
122.000      1.50287e+01
123.000      1.44921e+01
124.000      1.41169e+01
125.000      1.39145e+01
126.000      1.38660e+01
127.000      1.39295e+01
128.000      1.40498e+01
129.000      1.41711e+01
130.000      1.42459e+01
131.000      1.42410e+01
132.000      1.41388e+01
133.000      1.39361e+01
134.000      1.36385e+01
135.000      1.32563e+01
136.000      1.27990e+01
137.000      1.22734e+01
138.000      1.16828e+01
139.000      1.10300e+01
140.000      1.03200e+01
141.000      9.56380e+00
142.000      8.77900e+00
143.000      7.98925e+00
144.000      7.22094e+00
145.000      6.49907e+00
146.000      5.84297e+00
147.000      5.26306e+00
148.000      4.75927e+00
149.000      4.32141e+00
150.000      3.93187e+00
151.000      3.57038e+00
152.000      3.22016e+00
153.000      2.87402e+00
154.000      2.53863e+00
155.000      2.23550e+00
156.000      1.99797e+00
157.000      1.86515e+00
158.000      1.87426e+00
159.000      2.05335e+00
160.000      2.41579e+00
161.000      2.95721e+00
162.000      3.65473e+00
163.000      4.46841e+00
164.000      5.34515e+00
165.000      6.22557e+00
166.000      7.05454e+00
167.000      7.79422e+00
168.000      8.43688e+00
169.000      9.01240e+00
170.000      9.58553e+00
171.000      1.02402e+01
172.000      1.10538e+01
173.000      1.20681e+01
174.000      1.32686e+01
175.000      1.45796e+01
176.000      1.58791e+01
177.000      1.70296e+01
178.000      1.79143e+01
179.000      1.84670e+01
180.000      1.86866e+01
181.000      1.86334e+01
182.000      1.84079e+01
183.000      1.81205e+01
184.000      1.78612e+01
185.000      1.76770e+01
186.000      1.75639e+01
187.000      1.74774e+01
188.000      1.73574e+01
189.000      1.71633e+01
190.000      1.69052e+01
191.000      1.66620e+01
192.000      1.65752e+01
193.000      1.68196e+01
194.000      1.75561e+01
195.000      1.88805e+01
196.000      2.07861e+01
197.000      2.31514e+01
198.000      2.57583e+01
199.000      2.83346e+01
200.000      3.06098e+01
201.000      3.23655e+01
202.000      3.34688e+01
203.000      3.38819e+01
204.000      3.36496e+01
205.000      3.28732e+01
206.000      3.16806e+01
207.000      3.02007e+01
208.000      2.85458e+01
209.000      2.68026e+01
210.000      2.50303e+01
211.000      2.32645e+01
212.000      2.15247e+01
213.000      1.98247e+01
214.000      1.81802e+01
215.000      1.66138e+01
216.000      1.51521e+01
217.000      1.38182e+01
218.000      1.26226e+01
219.000      1.15563e+01
220.000      1.05912e+01
221.000      9.68903e+00
222.000      8.81437e+00
223.000      7.95002e+00
224.000      7.10798e+00
225.000      6.33351e+00
226.000      5.70047e+00
227.000      5.29898e+00
228.000      5.21809e+00
229.000      5.52728e+00
230.000      6.26071e+00
231.000      7.40764e+00
232.000      8.91135e+00
233.000      1.06769e+01
234.000      1.25868e+01
235.000      1.45206e+01
236.000      1.63750e+01
237.000      1.80786e+01
238.000      1.95994e+01
239.000      2.09408e+01
240.000      2.21299e+01
241.000      2.31994e+01
242.000      2.41699e+01
243.000      2.50366e+01
244.000      2.57645e+01
245.000      2.62936e+01
246.000      2.65510e+01
247.000      2.64674e+01
248.000      2.59917e+01
249.000      2.51016e+01
250.000      2.38083e+01
251.000      2.21552e+01
252.000      2.02124e+01
253.000      1.80686e+01
254.000      1.58225e+01
255.000      1.35732e+01
256.000      1.14130e+01
257.000      9.42123e+00
258.000      7.66086e+00
259.000      6.17746e+00
260.000      4.99963e+00
261.000      4.14068e+00
262.000      3.60085e+00
263.000      3.37031e+00
264.000      3.43305e+00
265.000      3.77153e+00
266.000      4.37130e+00
267.000      5.22399e+00
268.000      6.32693e+00
269.000      7.67849e+00
270.000      9.26969e+00
271.000      1.10744e+01
272.000      1.30422e+01
273.000      1.50967e+01
274.000      1.71420e+01
275.000      1.90761e+01
276.000      2.08056e+01
277.000      2.22583e+01
278.000      2.33880e+01
279.000      2.41702e+01
280.000      2.45931e+01
281.000      2.46477e+01
282.000      2.43250e+01
283.000      2.36195e+01
284.000      2.25399e+01
285.000      2.11194e+01
286.000      1.94217e+01
287.000      1.75371e+01
288.000      1.55714e+01
289.000      1.36308e+01
290.000      1.18065e+01
291.000      1.01659e+01
292.000      8.74924e+00
293.000      7.57227e+00
294.000      6.63203e+00
295.000      5.91303e+00
296.000      5.39224e+00
297.000      5.04208e+00
298.000      4.83152e+00
299.000      4.72641e+00
300.000      4.68976e+00
301.000      4.68296e+00
302.000      4.66843e+00
303.000      4.61372e+00
304.000      4.49621e+00
305.000      4.30755e+00
306.000      4.05614e+00
307.000      3.76654e+00
308.000      3.47505e+00
309.000      3.22218e+00
310.000      3.04364e+00
311.000      2.96246e+00
312.000      2.98451e+00
313.000      3.09870e+00
314.000      3.28129e+00
315.000      3.50239e+00
316.000      3.73208e+00
317.000      3.94429e+00
318.000      4.11769e+00
319.000      4.23464e+00
320.000      4.28002e+00
321.000      4.24140e+00
322.000      4.11135e+00
323.000      3.89080e+00
324.000      3.59188e+00
325.000      3.23810e+00
326.000      2.86116e+00
327.000      2.49455e+00
328.000      2.16617e+00
329.000      1.89217e+00
330.000      1.67441e+00
331.000      1.50206e+00
332.000      1.35692e+00
333.000      1.22009e+00
334.000      1.07783e+00
335.000      9.24811e-01
336.000      7.63952e-01
337.000      6.03806e-01
338.000      4.54729e-01
339.000      3.25444e-01
340.000      2.20970e-01
341.000      1.42190e-01
342.000      8.66547e-02
343.000      4.99952e-02
344.000      2.73002e-02
345.000      1.41071e-02
346.000      6.89759e-03
347.000      3.19095e-03
348.000      1.39665e-03
349.000      5.78354e-04
350.000      2.26583e-04
351.000      8.39817e-05
352.000      2.94486e-05
353.000      9.76935e-06
354.000      3.06609e-06
355.000      9.10383e-07
356.000      2.55730e-07
357.000      6.79605e-08
358.000      1.70863e-08
359.000      4.06406e-09
360.000      9.14510e-10
361.000      1.94686e-10
362.000      3.92101e-11
363.000      7.47102e-12
364.000      1.34673e-12
365.000      2.29665e-13
366.000      3.70536e-14
367.000      5.65564e-15
368.000      8.16679e-16
369.000      1.11568e-16
370.000      1.44193e-17
371.000      1.76305e-18
372.000      2.03941e-19
373.000      2.23184e-20
374.000      2.31067e-21
375.000      2.26324e-22
376.000      2.09720e-23
377.000      1.83852e-24
378.000      1.52480e-25
379.000      1.19640e-26
380.000      8.88092e-28
381.000      6.23672e-29
382.000      4.14355e-30
383.000      2.60439e-31
384.000      1.54866e-32
385.000      8.71215e-34
386.000      4.63673e-35
387.000      2.33462e-36
388.000      1.11208e-37
389.000      5.01160e-39
390.000      2.13665e-40
391.000      8.61801e-42
392.000      3.28851e-43
393.000      1.18716e-44
394.000      4.05448e-46
395.000      1.31003e-47
396.000      4.00445e-49
397.000      1.15804e-50
398.000      3.16825e-52
399.000      8.20040e-54
400.000      2.00802e-55
401.000      4.65177e-57
402.000      1.01950e-58
403.000      2.11384e-60
404.000      4.14643e-62
405.000      7.69476e-64
406.000      1.35093e-65
407.000      2.24383e-67
408.000      3.52584e-69
409.000      5.24148e-71
410.000      7.37162e-73
411.000      9.80819e-75
412.000      1.23462e-76
413.000      1.47026e-78
414.000      1.65643e-80
415.000      1.76551e-82
416.000      1.78026e-84
417.000      1.69831e-86
418.000      1.53273e-88
419.000      1.30868e-90
420.000      1.05710e-92
421.000      8.07830e-95
422.000      5.84036e-97
423.000      3.99464e-99
424.000     2.58483e-101
425.000     1.58236e-103
426.000     9.16422e-106
427.000     5.02115e-108
428.000     2.60273e-110
429.000     1.27636e-112
430.000     5.92151e-115
431.000     2.59903e-117
432.000     1.07921e-119
433.000     4.23956e-122
434.000     1.57562e-124
435.000     5.53988e-127
436.000     1.84275e-129
437.000     5.79897e-132
438.000     1.72644e-134
439.000     4.86263e-137
440.000     1.29571e-139
441.000     3.26635e-142
442.000     7.78994e-145
443.000     1.75761e-147
444.000     3.75172e-150
445.000     7.57627e-153
446.000     1.44743e-155
447.000     2.61612e-158
448.000     4.47337e-161
449.000     7.23653e-164
450.000     1.10750e-166
451.000     1.60352e-169
452.000     2.19645e-172
453.000     2.84634e-175
454.000     3.48955e-178
455.000     4.04735e-181
456.000     4.44108e-184
457.000     4.61025e-187
458.000     4.52771e-190
459.000     4.20678e-193
460.000     3.69776e-196
461.000     3.07500e-199
462.000     2.41918e-202
463.000     1.80057e-205
464.000     1.26785e-208
465.000     8.44590e-212
466.000     5.32280e-215
467.000     3.17360e-218
468.000     1.79012e-221
469.000     9.55276e-225
470.000     4.82273e-228
471.000     2.30343e-231
472.000     1.04082e-234
473.000     4.44931e-238
474.000     1.79940e-241
475.000     6.88464e-245
476.000     2.49202e-248
477.000     8.53374e-252
478.000     2.76468e-255
479.000     8.47360e-259
480.000     2.45702e-262
481.000     6.74011e-266
482.000     1.74921e-269
483.000     4.29473e-273
484.000     9.97579e-277
485.000     2.19218e-280
486.000     4.55746e-284
487.000     8.96368e-288
488.000     1.66789e-291
489.000     2.93607e-295
490.000     4.88972e-299
491.000     7.70403e-303
492.000     1.14834e-306
493.000     1.61935e-310
494.000     2.16036e-314
495.000     2.72666e-318
496.000     3.26083e-322
497.000      0.00000e+00
498.000      0.00000e+00
499.000      0.00000e+00
500.000      0.00000e+00
