# Gaussian folded, width=10 cm^-1
# [cm^-1] arbitrary
0.000      3.00000e+00
1.000      2.91796e+00
2.000      2.68508e+00
3.000      2.33749e+00
4.000      1.92514e+00
5.000      1.50000e+00
6.000      1.10570e+00
7.000      7.71085e-01
8.000      5.08727e-01
9.000      3.17530e-01
10.000      1.87500e-01
11.000      1.04746e-01
12.000      5.53598e-02
13.000      2.76824e-02
14.000      1.31027e-02
15.000      5.88939e-03
16.000      2.57079e-03
17.000      1.25005e-03
18.000      1.06897e-03
19.000      1.90898e-03
20.000      4.35852e-03
21.000      9.96566e-03
22.000      2.17997e-02
23.000      4.53234e-02
24.000      8.94905e-02
25.000      1.67810e-01
26.000      2.98873e-01
27.000      5.05627e-01
28.000      8.12611e-01
29.000      1.24071e+00
30.000      1.79975e+00
31.000      2.48036e+00
32.000      3.24766e+00
33.000      4.03988e+00
34.000      4.77400e+00
35.000      5.35897e+00
36.000      5.71376e+00
37.000      5.78571e+00
38.000      5.56329e+00
39.000      5.07912e+00
40.000      4.40221e+00
41.000      3.62188e+00
42.000      2.82865e+00
43.000      2.09781e+00
44.000      1.47971e+00
45.000      9.98140e-01
46.000      6.55366e-01
47.000      4.40978e-01
48.000      3.41141e-01
49.000      3.45827e-01
50.000      4.52546e-01
51.000      6.66191e-01
52.000      9.95316e-01
53.000      1.44580e+00
54.000      2.01337e+00
55.000      2.67698e+00
56.000      3.39523e+00
57.000      4.10754e+00
58.000      4.74103e+00
59.000      5.22190e+00
60.000      5.48925e+00
61.000      5.50746e+00
62.000      5.27391e+00
63.000      4.81982e+00
64.000      4.20379e+00
65.000      3.50030e+00
66.000      2.78614e+00
67.000      2.12872e+00
68.000      1.57868e+00
69.000      1.16795e+00
70.000      9.12250e-01
71.000      8.15989e-01
72.000      8.76977e-01
73.000      1.08907e+00
74.000      1.44194e+00
75.000      1.91859e+00
76.000      2.49210e+00
77.000      3.12373e+00
78.000      3.76406e+00
79.000      4.35821e+00
80.000      4.85456e+00
81.000      5.21538e+00
82.000      5.42682e+00
83.000      5.50507e+00
84.000      5.49685e+00
85.000      5.47295e+00
86.000      5.51589e+00
87.000      5.70401e+00
88.000      6.09558e+00
89.000      6.71649e+00
90.000      7.55453e+00
91.000      8.56138e+00
92.000      9.66150e+00
93.000      1.07657e+01
94.000      1.17854e+01
95.000      1.26458e+01
96.000      1.32935e+01
97.000      1.37008e+01
98.000      1.38652e+01
99.000      1.38058e+01
100.000      1.35585e+01
101.000      1.31692e+01
102.000      1.26874e+01
103.000      1.21586e+01
104.000      1.16192e+01
105.000      1.10924e+01
106.000      1.05888e+01
107.000      1.01090e+01
108.000      9.65031e+00
109.000      9.21298e+00
110.000      8.80614e+00
111.000      8.45063e+00
112.000      8.17827e+00
113.000      8.02758e+00
114.000      8.03675e+00
115.000      8.23529e+00
116.000      8.63594e+00
117.000      9.22906e+00
118.000      9.98093e+00
119.000      1.08371e+01
120.000      1.17306e+01
121.000      1.25924e+01
122.000      1.33630e+01
123.000      1.39998e+01
124.000      1.44814e+01
125.000      1.48063e+01
126.000      1.49887e+01
127.000      1.50528e+01
128.000      1.50279e+01
129.000      1.49439e+01
130.000      1.48280e+01
131.000      1.47023e+01
132.000      1.45806e+01
133.000      1.44664e+01
134.000      1.43530e+01
135.000      1.42242e+01
136.000      1.40586e+01
137.000      1.38347e+01
138.000      1.35360e+01
139.000      1.31550e+01
140.000      1.26954e+01
141.000      1.21710e+01
142.000      1.16037e+01
143.000      1.10179e+01
144.000      1.04364e+01
145.000      9.87550e+00
146.000      9.34268e+00
147.000      8.83707e+00
148.000      8.35306e+00
149.000      7.88587e+00
150.000      7.43725e+00
151.000      7.01878e+00
152.000      6.65145e+00
153.000      6.36096e+00
154.000      6.17028e+00
155.000      6.09210e+00
156.000      6.12376e+00
157.000      6.24645e+00
158.000      6.42911e+00
159.000      6.63525e+00
160.000      6.83064e+00
161.000      6.98937e+00
162.000      7.09688e+00
163.000      7.14987e+00
164.000      7.15416e+00
165.000      7.12189e+00
166.000      7.06925e+00
167.000      7.01521e+00
168.000      6.98069e+00
169.000      6.98731e+00
170.000      7.05482e+00
171.000      7.19726e+00
172.000      7.41851e+00
173.000      7.70889e+00
174.000      8.04430e+00
175.000      8.38896e+00
176.000      8.70153e+00
177.000      8.94318e+00
178.000      9.08563e+00
179.000      9.11691e+00
180.000      9.04368e+00
181.000      8.88975e+00
182.000      8.69150e+00
183.000      8.49133e+00
184.000      8.33039e+00
185.000      8.24167e+00
186.000      8.24475e+00
187.000      8.34305e+00
188.000      8.52434e+00
189.000      8.76454e+00
190.000      9.03395e+00
191.000      9.30445e+00
192.000      9.55573e+00
193.000      9.77929e+00
194.000      9.97927e+00
195.000      1.01701e+01
196.000      1.03715e+01
197.000      1.06020e+01
198.000      1.08724e+01
199.000      1.11801e+01
200.000      1.15076e+01
201.000      1.18247e+01
202.000      1.20954e+01
203.000      1.22867e+01
204.000      1.23784e+01
205.000      1.23681e+01
206.000      1.22729e+01
207.000      1.21237e+01
208.000      1.19576e+01
209.000      1.18074e+01
210.000      1.16942e+01
211.000      1.16230e+01
212.000      1.15827e+01
213.000      1.15511e+01
214.000      1.15021e+01
215.000      1.14156e+01
216.000      1.12842e+01
217.000      1.11183e+01
218.000      1.09449e+01
219.000      1.08018e+01
220.000      1.07284e+01
221.000      1.07552e+01
222.000      1.08960e+01
223.000      1.11448e+01
224.000      1.14780e+01
225.000      1.18606e+01
226.000      1.22544e+01
227.000      1.26257e+01
228.000      1.29504e+01
229.000      1.32159e+01
230.000      1.34203e+01
231.000      1.35705e+01
232.000      1.36784e+01
233.000      1.37588e+01
234.000      1.38262e+01
235.000      1.38923e+01
236.000      1.39643e+01
237.000      1.40422e+01
238.000      1.41188e+01
239.000      1.41799e+01
240.000      1.42069e+01
241.000      1.41808e+01
242.000      1.40870e+01
243.000      1.39187e+01
244.000      1.36787e+01
245.000      1.33791e+01
246.000      1.30386e+01
247.000      1.26786e+01
248.000      1.23193e+01
249.000      1.19772e+01
250.000      1.16628e+01
251.000      1.13802e+01
252.000      1.11270e+01
253.000      1.08946e+01
254.000      1.06691e+01
255.000      1.04333e+01
256.000      1.01696e+01
257.000      9.86491e+00
258.000      9.51430e+00
259.000      9.12398e+00
260.000      8.71080e+00
261.000      8.29868e+00
262.000      7.91288e+00
263.000      7.57382e+00
264.000      7.29264e+00
265.000      7.06946e+00
266.000      6.89454e+00
267.000      6.75155e+00
268.000      6.62153e+00
269.000      6.48647e+00
270.000      6.33201e+00
271.000      6.14915e+00
272.000      5.93552e+00
273.000      5.69644e+00
274.000      5.44578e+00
275.000      5.20551e+00
276.000      5.00326e+00
277.000      4.86699e+00
278.000      4.81791e+00
279.000      4.86326e+00
280.000      4.99182e+00
281.000      5.17400e+00
282.000      5.36714e+00
283.000      5.52458e+00
284.000      5.60591e+00
285.000      5.58569e+00
286.000      5.45831e+00
287.000      5.23827e+00
288.000      4.95621e+00
289.000      4.65193e+00
290.000      4.36651e+00
291.000      4.13527e+00
292.000      3.98322e+00
293.000      3.92348e+00
294.000      3.95836e+00
295.000      4.08162e+00
296.000      4.28065e+00
297.000      4.53738e+00
298.000      4.82828e+00
299.000      5.12452e+00
300.000      5.39390e+00
301.000      5.60534e+00
302.000      5.73544e+00
303.000      5.77499e+00
304.000      5.73276e+00
305.000      5.63467e+00
306.000      5.51795e+00
307.000      5.42233e+00
308.000      5.38104e+00
309.000      5.41467e+00
310.000      5.52963e+00
311.000      5.72086e+00
312.000      5.97711e+00
313.000      6.28625e+00
314.000      6.63845e+00
315.000      7.02642e+00
316.000      7.44345e+00
317.000      7.88101e+00
318.000      8.32792e+00
319.000      8.77226e+00
320.000      9.20559e+00
321.000      9.62771e+00
322.000      1.00497e+01
323.000      1.04935e+01
324.000      1.09870e+01
325.000      1.15567e+01
326.000      1.22196e+01
327.000      1.29780e+01
328.000      1.38173e+01
329.000      1.47098e+01
330.000      1.56206e+01
331.000      1.65146e+01
332.000      1.73612e+01
333.000      1.81368e+01
334.000      1.88230e+01
335.000      1.94051e+01
336.000      1.98710e+01
337.000      2.02128e+01
338.000      2.04302e+01
339.000      2.05350e+01
340.000      2.05522e+01
341.000      2.05182e+01
342.000      2.04730e+01
343.000      2.04511e+01
344.000      2.04716e+01
345.000      2.05337e+01
346.000      2.06172e+01
347.000      2.06889e+01
348.000      2.07121e+01
349.000      2.06563e+01
350.000      2.05018e+01
351.000      2.02407e+01
352.000      1.98723e+01
353.000      1.93980e+01
354.000      1.88169e+01
355.000      1.81255e+01
356.000      1.73216e+01
357.000      1.64096e+01
358.000      1.54057e+01
359.000      1.43396e+01
360.000      1.32518e+01
361.000      1.21866e+01
362.000      1.11846e+01
363.000      1.02758e+01
364.000      9.47585e+00
365.000      8.78524e+00
366.000      8.19245e+00
367.000      7.67837e+00
368.000      7.22184e+00
369.000      6.80513e+00
370.000      6.41816e+00
371.000      6.06073e+00
372.000      5.74191e+00
373.000      5.47675e+00
374.000      5.28125e+00
375.000      5.16748e+00
376.000      5.14094e+00
377.000      5.20113e+00
378.000      5.34507e+00
379.000      5.57160e+00
380.000      5.88384e+00
381.000      6.28781e+00
382.000      6.78697e+00
383.000      7.37452e+00
384.000      8.02659e+00
385.000      8.69924e+00
386.000      9.33116e+00
387.000      9.85167e+00
388.000      1.01922e+01
389.000      1.02986e+01
390.000      1.01409e+01
391.000      9.72016e+00
392.000      9.06944e+00
393.000      8.25023e+00
394.000      7.34388e+00
395.000      6.43912e+00
396.000      5.61719e+00
397.000      4.93740e+00
398.000      4.42639e+00
399.000      4.07443e+00
400.000      3.84042e+00
401.000      3.66470e+00
402.000      3.48641e+00
403.000      3.25989e+00
404.000      2.96555e+00
405.000      2.61218e+00
406.000      2.23081e+00
407.000      1.86310e+00
408.000      1.54822e+00
409.000      1.31238e+00
410.000      1.16334e+00
411.000      1.09053e+00
412.000      1.06975e+00
413.000      1.07060e+00
414.000      1.06425e+00
415.000      1.02977e+00
416.000      9.57550e-01
417.000      8.49432e-01
418.000      7.16000e-01
419.000      5.72269e-01
420.000      4.33226e-01
421.000      3.10463e-01
422.000      2.10551e-01
423.000      1.35112e-01
424.000      8.20319e-02
425.000      4.71203e-02
426.000      2.56072e-02
427.000      1.31655e-02
428.000      6.40372e-03
429.000      2.94677e-03
430.000      1.28286e-03
431.000      5.28360e-04
432.000      2.05873e-04
433.000      7.58900e-05
434.000      2.64660e-05
435.000      8.73192e-06
436.000      2.72552e-06
437.000      8.04833e-07
438.000      2.24843e-07
439.000      5.94254e-08
440.000      1.48587e-08
441.000      3.51486e-09
442.000      7.86598e-10
443.000      1.66539e-10
444.000      3.33576e-11
445.000      6.32110e-12
446.000      1.13320e-12
447.000      1.92194e-13
448.000      3.08383e-14
449.000      4.68122e-15
450.000      6.72271e-16
451.000      9.13371e-17
452.000      1.17400e-17
453.000      1.42760e-18
454.000      1.64234e-19
455.000      1.78746e-20
456.000      1.84046e-21
457.000      1.79281e-22
458.000      1.65220e-23
459.000      1.44047e-24
460.000      1.18814e-25
461.000      9.27142e-27
462.000      6.84452e-28
463.000      4.78032e-29
464.000      3.15856e-30
465.000      1.97442e-31
466.000      1.16763e-32
467.000      6.53266e-34
468.000      3.45774e-35
469.000      1.73146e-36
470.000      8.20257e-38
471.000      3.67625e-39
472.000      1.55875e-40
473.000      6.25271e-42
474.000      2.37288e-43
475.000      8.51925e-45
476.000      2.89364e-46
477.000      9.29834e-48
478.000      2.82672e-49
479.000      8.12979e-51
480.000      2.21204e-52
481.000      5.69409e-54
482.000      1.38667e-55
483.000      3.19477e-57
484.000      6.96343e-59
485.000      1.43590e-60
486.000      2.80120e-62
487.000      5.16988e-64
488.000      9.02681e-66
489.000      1.49110e-67
490.000      2.33021e-69
491.000      3.44511e-71
492.000      4.81868e-73
493.000      6.37632e-75
494.000      7.98233e-77
495.000      9.45382e-79
496.000      1.05926e-80
497.000      1.12283e-82
498.000      1.12602e-84
499.000      1.06830e-86
500.000      9.58868e-89
