# Gaussian folded, width=10 cm^-1
# [cm^-1] arbitrary
0.000      3.00000e+00
1.000      2.91796e+00
2.000      2.68508e+00
3.000      2.33749e+00
4.000      1.92514e+00
5.000      1.50000e+00
6.000      1.10570e+00
7.000      7.71085e-01
8.000      5.08727e-01
9.000      3.17529e-01
10.000      1.87500e-01
11.000      1.04746e-01
12.000      5.53590e-02
13.000      2.76795e-02
14.000      1.30932e-02
15.000      5.85946e-03
16.000      2.48102e-03
17.000      9.94780e-04
18.000      3.80587e-04
19.000      1.48419e-04
20.000      8.77794e-05
21.000      1.39090e-04
22.000      3.53826e-04
23.000      9.31760e-04
24.000      2.35084e-03
25.000      5.63261e-03
26.000      1.28056e-02
27.000      2.76258e-02
28.000      5.65603e-02
29.000      1.09914e-01
30.000      2.02770e-01
31.000      3.55159e-01
32.000      5.90708e-01
33.000      9.33064e-01
34.000      1.39989e+00
35.000      1.99513e+00
36.000      2.70143e+00
37.000      3.47539e+00
38.000      4.24856e+00
39.000      4.93562e+00
40.000      5.44920e+00
41.000      5.71791e+00
42.000      5.70260e+00
43.000      5.40567e+00
44.000      4.87046e+00
45.000      4.17093e+00
46.000      3.39490e+00
47.000      2.62625e+00
48.000      1.93080e+00
49.000      1.34898e+00
50.000      8.95618e-01
51.000      5.65110e-01
52.000      3.39134e-01
53.000      1.94307e-01
54.000      1.08109e-01
55.000      6.25402e-02
56.000      4.58473e-02
57.000      5.30589e-02
58.000      8.59985e-02
59.000      1.53117e-01
60.000      2.69033e-01
61.000      4.53288e-01
62.000      7.27667e-01
63.000      1.11165e+00
64.000      1.61613e+00
65.000      2.23642e+00
66.000      2.94653e+00
67.000      3.69695e+00
68.000      4.41798e+00
69.000      5.02920e+00
70.000      5.45366e+00
71.000      5.63356e+00
72.000      5.54303e+00
73.000      5.19424e+00
74.000      4.63484e+00
75.000      3.93758e+00
76.000      3.18515e+00
77.000      2.45492e+00
78.000      1.80751e+00
79.000      1.28164e+00
80.000      8.95302e-01
81.000      6.51512e-01
82.000      5.45744e-01
83.000      5.72353e-01
84.000      7.27994e-01
85.000      1.01130e+00
86.000      1.41930e+00
87.000      1.94193e+00
88.000      2.55668e+00
89.000      3.22544e+00
90.000      3.89510e+00
91.000      4.50268e+00
92.000      4.98431e+00
93.000      5.28645e+00
94.000      5.37684e+00
95.000      5.25252e+00
96.000      4.94306e+00
97.000      4.50794e+00
98.000      4.02853e+00
99.000      3.59616e+00
100.000      3.29825e+00
101.000      3.20501e+00
102.000      3.35868e+00
103.000      3.76740e+00
104.000      4.40467e+00
105.000      5.21522e+00
106.000      6.12618e+00
107.000      7.06173e+00
108.000      7.95762e+00
109.000      8.77174e+00
110.000      9.48768e+00
111.000      1.01102e+01
112.000      1.06541e+01
113.000      1.11314e+01
114.000      1.15407e+01
115.000      1.18639e+01
116.000      1.20710e+01
117.000      1.21303e+01
118.000      1.20212e+01
119.000      1.17423e+01
120.000      1.13135e+01
121.000      1.07713e+01
122.000      1.01594e+01
123.000      9.51893e+00
124.000      8.88286e+00
125.000      8.27405e+00
126.000      7.70850e+00
127.000      7.20005e+00
128.000      6.76395e+00
129.000      6.41730e+00
130.000      6.17614e+00
131.000      6.05096e+00
132.000      6.04342e+00
133.000      6.14630e+00
134.000      6.34708e+00
135.000      6.63351e+00
136.000      6.99836e+00
137.000      7.44100e+00
138.000      7.96450e+00
139.000      8.56941e+00
140.000      9.24644e+00
141.000      9.97083e+00
142.000      1.07008e+01
143.000      1.13812e+01
144.000      1.19516e+01
145.000      1.23570e+01
146.000      1.25591e+01
147.000      1.25439e+01
148.000      1.23250e+01
149.000      1.19413e+01
150.000      1.14507e+01
151.000      1.09207e+01
152.000      1.04185e+01
153.000      1.00016e+01
154.000      9.71080e+00
155.000      9.56454e+00
156.000      9.55712e+00
157.000      9.66046e+00
158.000      9.82993e+00
159.000      1.00138e+01
160.000      1.01639e+01
161.000      1.02456e+01
162.000      1.02435e+01
163.000      1.01619e+01
164.000      1.00199e+01
165.000      9.84296e+00
166.000      9.65352e+00
167.000      9.46319e+00
168.000      9.26915e+00
169.000      9.05513e+00
170.000      8.79685e+00
171.000      8.47039e+00
172.000      8.06115e+00
173.000      7.57083e+00
174.000      7.02019e+00
175.000      6.44647e+00
176.000      5.89625e+00
177.000      5.41568e+00
178.000      5.04130e+00
179.000      4.79410e+00
180.000      4.67804e+00
181.000      4.68298e+00
182.000      4.78993e+00
183.000      4.97668e+00
184.000      5.22184e+00
185.000      5.50663e+00
186.000      5.81502e+00
187.000      6.13310e+00
188.000      6.44860e+00
189.000      6.75091e+00
190.000      7.03113e+00
191.000      7.28155e+00
192.000      7.49454e+00
193.000      7.66113e+00
194.000      7.77060e+00
195.000      7.81187e+00
196.000      7.77662e+00
197.000      7.66314e+00
198.000      7.47868e+00
199.000      7.23883e+00
200.000      6.96332e+00
201.000      6.67010e+00
202.000      6.37026e+00
203.000      6.06655e+00
204.000      5.75628e+00
205.000      5.43708e+00
206.000      5.11240e+00
207.000      4.79361e+00
208.000      4.49732e+00
209.000      4.23910e+00
210.000      4.02675e+00
211.000      3.85639e+00
212.000      3.71318e+00
213.000      3.57638e+00
214.000      3.42626e+00
215.000      3.24984e+00
216.000      3.04338e+00
217.000      2.81103e+00
218.000      2.56118e+00
219.000      2.30237e+00
220.000      2.04071e+00
221.000      1.77962e+00
222.000      1.52129e+00
223.000      1.26870e+00
224.000      1.02680e+00
225.000      8.02408e-01
226.000      6.02726e-01
227.000      4.33536e-01
228.000      2.97717e-01
229.000      1.94736e-01
230.000      1.21112e-01
231.000      7.15250e-02
232.000      4.00711e-02
233.000      2.12812e-02
234.000      1.07083e-02
235.000      5.10319e-03
236.000      2.30266e-03
237.000      9.83551e-04
238.000      3.97626e-04
239.000      1.52129e-04
240.000      5.50775e-05
241.000      1.88683e-05
242.000      6.11601e-06
243.000      1.87571e-06
244.000      5.44267e-07
245.000      1.49418e-07
246.000      3.88086e-08
247.000      9.53734e-09
248.000      2.22260e-09
249.000      5.17929e-10
250.000      2.56859e-10
251.000      7.73591e-10
252.000      3.46140e-09
253.000      1.50093e-08
254.000      6.16341e-08
255.000      2.39456e-07
256.000      8.80149e-07
257.000      3.06066e-06
258.000      1.00695e-05
259.000      3.13425e-05
260.000      9.23007e-05
261.000      2.57176e-04
262.000      6.77990e-04
263.000      1.69125e-03
264.000      3.99220e-03
265.000      8.91838e-03
266.000      1.88580e-02
267.000      3.77519e-02
268.000      7.15746e-02
269.000      1.28578e-01
270.000      2.19008e-01
271.000      3.54059e-01
272.000      5.44039e-01
273.000      7.96136e-01
274.000      1.11258e+00
275.000      1.49017e+00
276.000      1.92169e+00
277.000      2.39890e+00
278.000      2.91554e+00
279.000      3.46816e+00
280.000      4.05317e+00
281.000      4.66045e+00
282.000      5.26624e+00
283.000      5.82997e+00
284.000      6.29893e+00
285.000      6.62208e+00
286.000      6.76953e+00
287.000      6.75091e+00
288.000      6.62473e+00
289.000      6.49341e+00
290.000      6.48372e+00
291.000      6.71772e+00
292.000      7.28262e+00
293.000      8.20822e+00
294.000      9.45770e+00
295.000      1.09334e+01
296.000      1.24948e+01
297.000      1.39826e+01
298.000      1.52439e+01
299.000      1.61535e+01
300.000      1.66287e+01
301.000      1.66382e+01
302.000      1.62056e+01
303.000      1.54082e+01
304.000      1.43697e+01
305.000      1.32467e+01
306.000      1.22071e+01
307.000      1.14033e+01
308.000      1.09436e+01
309.000      1.08693e+01
310.000      1.11450e+01
311.000      1.16642e+01
312.000      1.22738e+01
313.000      1.28090e+01
314.000      1.31321e+01
315.000      1.31654e+01
316.000      1.29098e+01
317.000      1.24451e+01
318.000      1.19139e+01
319.000      1.14927e+01
320.000      1.13575e+01
321.000      1.16523e+01
322.000      1.24670e+01
323.000      1.38278e+01
324.000      1.57005e+01
325.000      1.80023e+01
326.000      2.06177e+01
327.000      2.34119e+01
328.000      2.62400e+01
329.000      2.89527e+01
330.000      3.13999e+01
331.000      3.34383e+01
332.000      3.49423e+01
333.000      3.58201e+01
334.000      3.60286e+01
335.000      3.55836e+01
336.000      3.45607e+01
337.000      3.30854e+01
338.000      3.13156e+01
339.000      2.94196e+01
340.000      2.75569e+01
341.000      2.58647e+01
342.000      2.44505e+01
343.000      2.33904e+01
344.000      2.27301e+01
345.000      2.24863e+01
346.000      2.26493e+01
347.000      2.31841e+01
348.000      2.40336e+01
349.000      2.51209e+01
350.000      2.63537e+01
351.000      2.76293e+01
352.000      2.88414e+01
353.000      2.98880e+01
354.000      3.06801e+01
355.000      3.11499e+01
356.000      3.12561e+01
357.000      3.09855e+01
358.000      3.03506e+01
359.000      2.93832e+01
360.000      2.81269e+01
361.000      2.66301e+01
362.000      2.49398e+01
363.000      2.30988e+01
364.000      2.11451e+01
365.000      1.91149e+01
366.000      1.70463e+01
367.000      1.49839e+01
368.000      1.29821e+01
369.000      1.11032e+01
370.000      9.41279e+00
371.000      7.97143e+00
372.000      6.82564e+00
373.000      6.00116e+00
374.000      5.50007e+00
375.000      5.30251e+00
376.000      5.37222e+00
377.000      5.66496e+00
378.000      6.13821e+00
379.000      6.76089e+00
380.000      7.52069e+00
381.000      8.42637e+00
382.000      9.50267e+00
383.000      1.07773e+01
384.000      1.22631e+01
385.000      1.39418e+01
386.000      1.57558e+01
387.000      1.76148e+01
388.000      1.94136e+01
389.000      2.10565e+01
390.000      2.24772e+01
391.000      2.36449e+01
392.000      2.45547e+01
393.000      2.52065e+01
394.000      2.55829e+01
395.000      2.56369e+01
396.000      2.52962e+01
397.000      2.44833e+01
398.000      2.31450e+01
399.000      2.12802e+01
400.000      1.89556e+01
401.000      1.63039e+01
402.000      1.35041e+01
403.000      1.07505e+01
404.000      8.21897e+00
405.000      6.04116e+00
406.000      4.29019e+00
407.000      2.98109e+00
408.000      2.08171e+00
409.000      1.52930e+00
410.000      1.24761e+00
411.000      1.16082e+00
412.000      1.20328e+00
413.000      1.32484e+00
414.000      1.49259e+00
415.000      1.68970e+00
416.000      1.91168e+00
417.000      2.16084e+00
418.000      2.43996e+00
419.000      2.74673e+00
420.000      3.07010e+00
421.000      3.38971e+00
422.000      3.67797e+00
423.000      3.90435e+00
424.000      4.04048e+00
425.000      4.06499e+00
426.000      3.96716e+00
427.000      3.74894e+00
428.000      3.42491e+00
429.000      3.02044e+00
430.000      2.56821e+00
431.000      2.10380e+00
432.000      1.66108e+00
433.000      1.26842e+00
434.000      9.46238e-01
435.000      7.06222e-01
436.000      5.51863e-01
437.000      4.79656e-01
438.000      4.80301e-01
439.000      5.39576e-01
440.000      6.38991e-01
441.000      7.56777e-01
442.000      8.69736e-01
443.000      9.56113e-01
444.000      9.99038e-01
445.000      9.89533e-01
446.000      9.28022e-01
447.000      8.23677e-01
448.000      6.91731e-01
449.000      5.49621e-01
450.000      4.13160e-01
451.000      2.93830e-01
452.000      1.97694e-01
453.000      1.25837e-01
454.000      7.57779e-02
455.000      4.31712e-02
456.000      2.32682e-02
457.000      1.18645e-02
458.000      5.72340e-03
459.000      2.61202e-03
460.000      1.12776e-03
461.000      4.60652e-04
462.000      1.78012e-04
463.000      6.50790e-05
464.000      2.25087e-05
465.000      7.36509e-06
466.000      2.27994e-06
467.000      6.67708e-07
468.000      1.84998e-07
469.000      4.84914e-08
470.000      1.20249e-08
471.000      2.82107e-09
472.000      6.26130e-10
473.000      1.31472e-10
474.000      2.61167e-11
475.000      4.90820e-12
476.000      8.72658e-13
477.000      1.46785e-13
478.000      2.33582e-14
479.000      3.51652e-15
480.000      5.00847e-16
481.000      6.74861e-17
482.000      8.60282e-18
483.000      1.03749e-18
484.000      1.18372e-19
485.000      1.27769e-20
486.000      1.30474e-21
487.000      1.26049e-22
488.000      1.15205e-23
489.000      9.96143e-25
490.000      8.14872e-26
491.000      6.30630e-27
492.000      4.61719e-28
493.000      3.19814e-29
494.000      2.09573e-30
495.000      1.29925e-31
496.000      7.62017e-33
497.000      4.22820e-34
498.000      2.21955e-35
499.000      1.10228e-36
500.000      5.17885e-38
