# Gaussian folded, width=10 cm^-1
# [cm^-1] arbitrary
0.000      3.00000e+00
1.000      2.91796e+00
2.000      2.68508e+00
3.000      2.33749e+00
4.000      1.92514e+00
5.000      1.50000e+00
6.000      1.10570e+00
7.000      7.71085e-01
8.000      5.08727e-01
9.000      3.17530e-01
10.000      1.87500e-01
11.000      1.04747e-01
12.000      5.53652e-02
13.000      2.76998e-02
14.000      1.31562e-02
15.000      6.04456e-03
16.000      2.99632e-03
17.000      2.35405e-03
18.000      3.77836e-03
19.000      8.19737e-03
20.000      1.81577e-02
21.000      3.85852e-02
22.000      7.78750e-02
23.000      1.49060e-01
24.000      2.70548e-01
25.000      4.65665e-01
26.000      7.60121e-01
27.000      1.17681e+00
28.000      1.72816e+00
29.000      2.40738e+00
30.000      3.18142e+00
31.000      3.98882e+00
32.000      4.74502e+00
33.000      5.35582e+00
34.000      5.73626e+00
35.000      5.82993e+00
36.000      5.62268e+00
37.000      5.14622e+00
38.000      4.47025e+00
39.000      3.68612e+00
40.000      2.88724e+00
41.000      2.15242e+00
42.000      1.53623e+00
43.000      1.06766e+00
44.000      7.55522e-01
45.000      5.97154e-01
46.000      5.86787e-01
47.000      7.20708e-01
48.000      9.97853e-01
49.000      1.41600e+00
50.000      1.96518e+00
51.000      2.62073e+00
52.000      3.33897e+00
53.000      4.05766e+00
54.000      4.70236e+00
55.000      5.19782e+00
56.000      5.48170e+00
57.000      5.51703e+00
58.000      5.29989e+00
59.000      4.86009e+00
60.000      4.25485e+00
61.000      3.55742e+00
62.000      2.84388e+00
63.000      2.18178e+00
64.000      1.62304e+00
65.000      1.20217e+00
66.000      9.38720e-01
67.000      8.41925e-01
68.000      9.14812e-01
69.000      1.15570e+00
70.000      1.55639e+00
71.000      2.09813e+00
72.000      2.74762e+00
73.000      3.45619e+00
74.000      4.16415e+00
75.000      4.81064e+00
76.000      5.34689e+00
77.000      5.74896e+00
78.000      6.02544e+00
79.000      6.21730e+00
80.000      6.38899e+00
81.000      6.61326e+00
82.000      6.95389e+00
83.000      7.45100e+00
84.000      8.11295e+00
85.000      8.91637e+00
86.000      9.81358e+00
87.000      1.07445e+01
88.000      1.16490e+01
89.000      1.24763e+01
90.000      1.31888e+01
91.000      1.37608e+01
92.000      1.41745e+01
93.000      1.44156e+01
94.000      1.44723e+01
95.000      1.43379e+01
96.000      1.40160e+01
97.000      1.35251e+01
98.000      1.29003e+01
99.000      1.21898e+01
100.000      1.14470e+01
101.000      1.07228e+01
102.000      1.00596e+01
103.000      9.49000e+00
104.000      9.03945e+00
105.000      8.73045e+00
106.000      8.58526e+00
107.000      8.62482e+00
108.000      8.86404e+00
109.000      9.30499e+00
110.000      9.93104e+00
111.000      1.07048e+01
112.000      1.15711e+01
113.000      1.24658e+01
114.000      1.33258e+01
115.000      1.41002e+01
116.000      1.47565e+01
117.000      1.52809e+01
118.000      1.56745e+01
119.000      1.59458e+01
120.000      1.61047e+01
121.000      1.61603e+01
122.000      1.61211e+01
123.000      1.59984e+01
124.000      1.58080e+01
125.000      1.55687e+01
126.000      1.52988e+01
127.000      1.50116e+01
128.000      1.47134e+01
129.000      1.44038e+01
130.000      1.40802e+01
131.000      1.37425e+01
132.000      1.33952e+01
133.000      1.30481e+01
134.000      1.27123e+01
135.000      1.23966e+01
136.000      1.21040e+01
137.000      1.18314e+01
138.000      1.15709e+01
139.000      1.13130e+01
140.000      1.10492e+01
141.000      1.07733e+01
142.000      1.04809e+01
143.000      1.01689e+01
144.000      9.83446e+00
145.000      9.47506e+00
146.000      9.09032e+00
147.000      8.68411e+00
148.000      8.26649e+00
149.000      7.85409e+00
150.000      7.46787e+00
151.000      7.12839e+00
152.000      6.84965e+00
153.000      6.63354e+00
154.000      6.46730e+00
155.000      6.32553e+00
156.000      6.17680e+00
157.000      5.99322e+00
158.000      5.75988e+00
159.000      5.48093e+00
160.000      5.18008e+00
161.000      4.89521e+00
162.000      4.66874e+00
163.000      4.53716e+00
164.000      4.52286e+00
165.000      4.63090e+00
166.000      4.85125e+00
167.000      5.16509e+00
168.000      5.55258e+00
169.000      5.99925e+00
170.000      6.49882e+00
171.000      7.05191e+00
172.000      7.66111e+00
173.000      8.32470e+00
174.000      9.03094e+00
175.000      9.75542e+00
176.000      1.04626e+01
177.000      1.11118e+01
178.000      1.16658e+01
179.000      1.21000e+01
180.000      1.24087e+01
181.000      1.26070e+01
182.000      1.27270e+01
183.000      1.28099e+01
184.000      1.28968e+01
185.000      1.30200e+01
186.000      1.31985e+01
187.000      1.34366e+01
188.000      1.37267e+01
189.000      1.40537e+01
190.000      1.44005e+01
191.000      1.47531e+01
192.000      1.51034e+01
193.000      1.54504e+01
194.000      1.57985e+01
195.000      1.61550e+01
196.000      1.65266e+01
197.000      1.69157e+01
198.000      1.73190e+01
199.000      1.77261e+01
200.000      1.81203e+01
201.000      1.84794e+01
202.000      1.87775e+01
203.000      1.89871e+01
204.000      1.90823e+01
205.000      1.90425e+01
206.000      1.88569e+01
207.000      1.85272e+01
208.000      1.80690e+01
209.000      1.75096e+01
210.000      1.68835e+01
211.000      1.62262e+01
212.000      1.55686e+01
213.000      1.49329e+01
214.000      1.43324e+01
215.000      1.37733e+01
216.000      1.32593e+01
217.000      1.27953e+01
218.000      1.23895e+01
219.000      1.20532e+01
220.000      1.17985e+01
221.000      1.16353e+01
222.000      1.15694e+01
223.000      1.16029e+01
224.000      1.17351e+01
225.000      1.19643e+01
226.000      1.22882e+01
227.000      1.27015e+01
228.000      1.31943e+01
229.000      1.37495e+01
230.000      1.43435e+01
231.000      1.49488e+01
232.000      1.55384e+01
233.000      1.60904e+01
234.000      1.65902e+01
235.000      1.70316e+01
236.000      1.74145e+01
237.000      1.77432e+01
238.000      1.80250e+01
239.000      1.82686e+01
240.000      1.84844e+01
241.000      1.86821e+01
242.000      1.88692e+01
243.000      1.90469e+01
244.000      1.92066e+01
245.000      1.93281e+01
246.000      1.93793e+01
247.000      1.93195e+01
248.000      1.91051e+01
249.000      1.86978e+01
250.000      1.80730e+01
251.000      1.72275e+01
252.000      1.61851e+01
253.000      1.49974e+01
254.000      1.37386e+01
255.000      1.24960e+01
256.000      1.13559e+01
257.000      1.03890e+01
258.000      9.63871e+00
259.000      9.11483e+00
260.000      8.79445e+00
261.000      8.62907e+00
262.000      8.55639e+00
263.000      8.51347e+00
264.000      8.44863e+00
265.000      8.32997e+00
266.000      8.14909e+00
267.000      7.92030e+00
268.000      7.67569e+00
269.000      7.45762e+00
270.000      7.31008e+00
271.000      7.27065e+00
272.000      7.36419e+00
273.000      7.59931e+00
274.000      7.96778e+00
275.000      8.44665e+00
276.000      9.00206e+00
277.000      9.59386e+00
278.000      1.01797e+01
279.000      1.07181e+01
280.000      1.11706e+01
281.000      1.15037e+01
282.000      1.16899e+01
283.000      1.17099e+01
284.000      1.15549e+01
285.000      1.12283e+01
286.000      1.07472e+01
287.000      1.01430e+01
288.000      9.46000e+00
289.000      8.75320e+00
290.000      8.08275e+00
291.000      7.50645e+00
292.000      7.07007e+00
293.000      6.79783e+00
294.000      6.68545e+00
295.000      6.69859e+00
296.000      6.77818e+00
297.000      6.85199e+00
298.000      6.84985e+00
299.000      6.71840e+00
300.000      6.43142e+00
301.000      5.99330e+00
302.000      5.43493e+00
303.000      4.80414e+00
304.000      4.15382e+00
305.000      3.53152e+00
306.000      2.97332e+00
307.000      2.50282e+00
308.000      2.13435e+00
309.000      1.87789e+00
310.000      1.74292e+00
311.000      1.73949e+00
312.000      1.87599e+00
313.000      2.15492e+00
314.000      2.56855e+00
315.000      3.09650e+00
316.000      3.70625e+00
317.000      4.35672e+00
318.000      5.00382e+00
319.000      5.60659e+00
320.000      6.13248e+00
321.000      6.56093e+00
322.000      6.88511e+00
323.000      7.11200e+00
324.000      7.26121e+00
325.000      7.36278e+00
326.000      7.45368e+00
327.000      7.57294e+00
328.000      7.75554e+00
329.000      8.02583e+00
330.000      8.39199e+00
331.000      8.84319e+00
332.000      9.35095e+00
333.000      9.87488e+00
334.000      1.03718e+01
335.000      1.08058e+01
336.000      1.11569e+01
337.000      1.14247e+01
338.000      1.16269e+01
339.000      1.17927e+01
340.000      1.19526e+01
341.000      1.21296e+01
342.000      1.23316e+01
343.000      1.25497e+01
344.000      1.27604e+01
345.000      1.29315e+01
346.000      1.30288e+01
347.000      1.30233e+01
348.000      1.28949e+01
349.000      1.26343e+01
350.000      1.22427e+01
351.000      1.17297e+01
352.000      1.11113e+01
353.000      1.04082e+01
354.000      9.64450e+00
355.000      8.84772e+00
356.000      8.04788e+00
357.000      7.27616e+00
358.000      6.56224e+00
359.000      5.93040e+00
360.000      5.39553e+00
361.000      4.96023e+00
362.000      4.61443e+00
363.000      4.33803e+00
364.000      4.10631e+00
365.000      3.89665e+00
366.000      3.69456e+00
367.000      3.49721e+00
368.000      3.31323e+00
369.000      3.15901e+00
370.000      3.05257e+00
371.000      3.00715e+00
372.000      3.02669e+00
373.000      3.10475e+00
374.000      3.22716e+00
375.000      3.37753e+00
376.000      3.54353e+00
377.000      3.72160e+00
378.000      3.91813e+00
379.000      4.14647e+00
380.000      4.42028e+00
381.000      4.74528e+00
382.000      5.11206e+00
383.000      5.49248e+00
384.000      5.84156e+00
385.000      6.10487e+00
386.000      6.22995e+00
387.000      6.17865e+00
388.000      5.93680e+00
389.000      5.51842e+00
390.000      4.96332e+00
391.000      4.32891e+00
392.000      3.67859e+00
393.000      3.06989e+00
394.000      2.54504e+00
395.000      2.12570e+00
396.000      1.81240e+00
397.000      1.58839e+00
398.000      1.42632e+00
399.000      1.29628e+00
400.000      1.17300e+00
401.000      1.04056e+00
402.000      8.93991e-01
403.000      7.37545e-01
404.000      5.81039e-01
405.000      4.35558e-01
406.000      3.09994e-01
407.000      2.09188e-01
408.000      1.33732e-01
409.000      8.09505e-02
410.000      4.63826e-02
411.000      2.51509e-02
412.000      1.29051e-02
413.000      6.26533e-03
414.000      2.87793e-03
415.000      1.25072e-03
416.000      5.14244e-04
417.000      2.00035e-04
418.000      7.36151e-05
419.000      2.56300e-05
420.000      8.44212e-06
421.000      2.63071e-06
422.000      7.75556e-07
423.000      2.16307e-07
424.000      5.70752e-08
425.000      1.42476e-08
426.000      3.36475e-09
427.000      7.51766e-10
428.000      1.58902e-10
429.000      3.17757e-11
430.000      6.01142e-12
431.000      1.07591e-12
432.000      1.82178e-13
433.000      2.91830e-14
434.000      4.42265e-15
435.000      6.34094e-16
436.000      8.60085e-17
437.000      1.10369e-17
438.000      1.33989e-18
439.000      1.53890e-19
440.000      1.67213e-20
441.000      1.71888e-21
442.000      1.67163e-22
443.000      1.53798e-23
444.000      1.33869e-24
445.000      1.10237e-25
446.000      8.58797e-27
447.000      6.32954e-28
448.000      4.41338e-29
449.000      2.91131e-30
450.000      1.81687e-31
451.000      1.07269e-32
452.000      5.99163e-34
453.000      3.16615e-35
454.000      1.58284e-36
455.000      7.48617e-38
456.000      3.34965e-39
457.000      1.41794e-40
458.000      5.67849e-42
459.000      2.15142e-43
460.000      7.71145e-45
461.000      2.61495e-46
462.000      8.38899e-48
463.000      2.54609e-49
464.000      7.31062e-51
465.000      1.98588e-52
466.000      5.10351e-54
467.000      1.24080e-55
468.000      2.85400e-57
469.000      6.21044e-59
470.000      1.27852e-60
471.000      2.49008e-62
472.000      4.58812e-64
473.000      7.99787e-66
474.000      1.31896e-67
475.000      2.05781e-69
476.000      3.03737e-71
477.000      4.24138e-73
478.000      5.60318e-75
479.000      7.00293e-77
480.000      8.28022e-79
481.000      9.26237e-81
482.000      9.80212e-83
483.000      9.81375e-85
484.000      9.29540e-87
485.000      8.32949e-89
486.000      7.06133e-91
487.000      5.66334e-93
488.000      4.29710e-95
489.000      3.08458e-97
490.000      2.09476e-99
491.000     1.34583e-101
492.000     8.18022e-104
493.000     4.70388e-106
494.000     2.55897e-108
495.000     1.31702e-110
496.000     6.41263e-113
497.000     2.95391e-115
498.000     1.28729e-117
499.000     5.30730e-120
500.000     2.07009e-122
