# Gaussian folded, width=10 cm^-1
# [cm^-1] arbitrary
0.000      3.00000e+00
1.000      2.91796e+00
2.000      2.68508e+00
3.000      2.33749e+00
4.000      1.92514e+00
5.000      1.50000e+00
6.000      1.10570e+00
7.000      7.71085e-01
8.000      5.08727e-01
9.000      3.17530e-01
10.000      1.87500e-01
11.000      1.04747e-01
12.000      5.53642e-02
13.000      2.76965e-02
14.000      1.31466e-02
15.000      6.01823e-03
16.000      2.92821e-03
17.000      2.18814e-03
18.000      3.39796e-03
19.000      7.37706e-03
20.000      1.64955e-02
21.000      3.54241e-02
22.000      7.22409e-02
23.000      1.39667e-01
24.000      2.55937e-01
25.000      4.44531e-01
26.000      7.31836e-01
27.000      1.14204e+00
28.000      1.68937e+00
29.000      2.36894e+00
30.000      3.14911e+00
31.000      3.96863e+00
32.000      4.74163e+00
33.000      5.37111e+00
34.000      5.76853e+00
35.000      5.87416e+00
36.000      5.67180e+00
37.000      5.19291e+00
38.000      4.50867e+00
39.000      3.71288e+00
40.000      2.90144e+00
41.000      2.15481e+00
42.000      1.52791e+00
43.000      1.04884e+00
44.000      7.24775e-01
45.000      5.51486e-01
46.000      5.22643e-01
47.000      6.35926e-01
48.000      8.94200e-01
49.000      1.30159e+00
50.000      1.85565e+00
51.000      2.53815e+00
52.000      3.30777e+00
53.000      4.09819e+00
54.000      4.82380e+00
55.000      5.39305e+00
56.000      5.72661e+00
57.000      5.77517e+00
58.000      5.53130e+00
59.000      5.03136e+00
60.000      4.34686e+00
61.000      3.56817e+00
62.000      2.78597e+00
63.000      2.07596e+00
64.000      1.49055e+00
65.000      1.05848e+00
66.000      7.90406e-01
67.000      6.87149e-01
68.000      7.46877e-01
69.000      9.68595e-01
70.000      1.35081e+00
71.000      1.88606e+00
72.000      2.55361e+00
73.000      3.31355e+00
74.000      4.10582e+00
75.000      4.85646e+00
76.000      5.49111e+00
77.000      5.95285e+00
78.000      6.21928e+00
79.000      6.31266e+00
80.000      6.29870e+00
81.000      6.27321e+00
82.000      6.33993e+00
83.000      6.58642e+00
84.000      7.06535e+00
85.000      7.78647e+00
86.000      8.72042e+00
87.000      9.81098e+00
88.000      1.09901e+01
89.000      1.21895e+01
90.000      1.33463e+01
91.000      1.44023e+01
92.000      1.53009e+01
93.000      1.59848e+01
94.000      1.63984e+01
95.000      1.64957e+01
96.000      1.62504e+01
97.000      1.56656e+01
98.000      1.47797e+01
99.000      1.36643e+01
100.000      1.24152e+01
101.000      1.11374e+01
102.000      9.92903e+00
103.000      8.86841e+00
104.000      8.00811e+00
105.000      7.37707e+00
106.000      6.98876e+00
107.000      6.85106e+00
108.000      6.97320e+00
109.000      7.36631e+00
110.000      8.03719e+00
111.000      8.97775e+00
112.000      1.01545e+01
113.000      1.15030e+01
114.000      1.29301e+01
115.000      1.43254e+01
116.000      1.55782e+01
117.000      1.65961e+01
118.000      1.73200e+01
119.000      1.77312e+01
120.000      1.78491e+01
121.000      1.77213e+01
122.000      1.74102e+01
123.000      1.69791e+01
124.000      1.64829e+01
125.000      1.59634e+01
126.000      1.54488e+01
127.000      1.49559e+01
128.000      1.44941e+01
129.000      1.40677e+01
130.000      1.36788e+01
131.000      1.33298e+01
132.000      1.30241e+01
133.000      1.27674e+01
134.000      1.25661e+01
135.000      1.24249e+01
136.000      1.23435e+01
137.000      1.23137e+01
138.000      1.23180e+01
139.000      1.23313e+01
140.000      1.23240e+01
141.000      1.22670e+01
142.000      1.21362e+01
143.000      1.19159e+01
144.000      1.16005e+01
145.000      1.11952e+01
146.000      1.07145e+01
147.000      1.01811e+01
148.000      9.62142e+00
149.000      9.06173e+00
150.000      8.52287e+00
151.000      8.01662e+00
152.000      7.54456e+00
153.000      7.09996e+00
154.000      6.67200e+00
155.000      6.25074e+00
156.000      5.83103e+00
157.000      5.41450e+00
158.000      5.00949e+00
159.000      4.62979e+00
160.000      4.29294e+00
161.000      4.01855e+00
162.000      3.82651e+00
163.000      3.73493e+00
164.000      3.75762e+00
165.000      3.90139e+00
166.000      4.16403e+00
167.000      4.53364e+00
168.000      4.98988e+00
169.000      5.50716e+00
170.000      6.05909e+00
171.000      6.62304e+00
172.000      7.18346e+00
173.000      7.73265e+00
174.000      8.26886e+00
175.000      8.79241e+00
176.000      9.30152e+00
177.000      9.78998e+00
178.000      1.02480e+01
179.000      1.06659e+01
180.000      1.10401e+01
181.000      1.13767e+01
182.000      1.16935e+01
183.000      1.20160e+01
184.000      1.23707e+01
185.000      1.27765e+01
186.000      1.32386e+01
187.000      1.37454e+01
188.000      1.42717e+01
189.000      1.47852e+01
190.000      1.52548e+01
191.000      1.56586e+01
192.000      1.59883e+01
193.000      1.62506e+01
194.000      1.64657e+01
195.000      1.66638e+01
196.000      1.68803e+01
197.000      1.71512e+01
198.000      1.75062e+01
199.000      1.79620e+01
200.000      1.85167e+01
201.000      1.91459e+01
202.000      1.98038e+01
203.000      2.04276e+01
204.000      2.09469e+01
205.000      2.12929e+01
206.000      2.14093e+01
207.000      2.12591e+01
208.000      2.08298e+01
209.000      2.01342e+01
210.000      1.92082e+01
211.000      1.81058e+01
212.000      1.68916e+01
213.000      1.56329e+01
214.000      1.43931e+01
215.000      1.32266e+01
216.000      1.21773e+01
217.000      1.12798e+01
218.000      1.05611e+01
219.000      1.00419e+01
220.000      9.73630e+00
221.000      9.64867e+00
222.000      9.77072e+00
223.000      1.00797e+01
224.000      1.05398e+01
225.000      1.11060e+01
226.000      1.17312e+01
227.000      1.23719e+01
228.000      1.29941e+01
229.000      1.35761e+01
230.000      1.41093e+01
231.000      1.45965e+01
232.000      1.50489e+01
233.000      1.54801e+01
234.000      1.59005e+01
235.000      1.63119e+01
236.000      1.67050e+01
237.000      1.70606e+01
238.000      1.73542e+01
239.000      1.75619e+01
240.000      1.76658e+01
241.000      1.76572e+01
242.000      1.75383e+01
243.000      1.73203e+01
244.000      1.70214e+01
245.000      1.66644e+01
246.000      1.62727e+01
247.000      1.58668e+01
248.000      1.54600e+01
249.000      1.50545e+01
250.000      1.46396e+01
251.000      1.41928e+01
252.000      1.36839e+01
253.000      1.30826e+01
254.000      1.23674e+01
255.000      1.15333e+01
256.000      1.05978e+01
257.000      9.60114e+00
258.000      8.60226e+00
259.000      7.66896e+00
260.000      6.86525e+00
261.000      6.23807e+00
262.000      5.80720e+00
263.000      5.56116e+00
264.000      5.46101e+00
265.000      5.45133e+00
266.000      5.47580e+00
267.000      5.49318e+00
268.000      5.48937e+00
269.000      5.48246e+00
270.000      5.51929e+00
271.000      5.66469e+00
272.000      5.98554e+00
273.000      6.53342e+00
274.000      7.32957e+00
275.000      8.35538e+00
276.000      9.55095e+00
277.000      1.08225e+01
278.000      1.20571e+01
279.000      1.31422e+01
280.000      1.39845e+01
281.000      1.45243e+01
282.000      1.47416e+01
283.000      1.46538e+01
284.000      1.43059e+01
285.000      1.37582e+01
286.000      1.30746e+01
287.000      1.23147e+01
288.000      1.15300e+01
289.000      1.07628e+01
290.000      1.00458e+01
291.000      9.40062e+00
292.000      8.83637e+00
293.000      8.34776e+00
294.000      7.91643e+00
295.000      7.51546e+00
296.000      7.11671e+00
297.000      6.69878e+00
298.000      6.25323e+00
299.000      5.78704e+00
300.000      5.32093e+00
301.000      4.88448e+00
302.000      4.50982e+00
303.000      4.22578e+00
304.000      4.05354e+00
305.000      4.00392e+00
306.000      4.07594e+00
307.000      4.25603e+00
308.000      4.51794e+00
309.000      4.82408e+00
310.000      5.12915e+00
311.000      5.38670e+00
312.000      5.55794e+00
313.000      5.62091e+00
314.000      5.57731e+00
315.000      5.45422e+00
316.000      5.29949e+00
317.000      5.17126e+00
318.000      5.12431e+00
319.000      5.19662e+00
320.000      5.40020e+00
321.000      5.71868e+00
322.000      6.11263e+00
323.000      6.53112e+00
324.000      6.92636e+00
325.000      7.26698e+00
326.000      7.54626e+00
327.000      7.78316e+00
328.000      8.01627e+00
329.000      8.29312e+00
330.000      8.65805e+00
331.000      9.14179e+00
332.000      9.75487e+00
333.000      1.04855e+01
334.000      1.13015e+01
335.000      1.21559e+01
336.000      1.29941e+01
337.000      1.37621e+01
338.000      1.44129e+01
339.000      1.49112e+01
340.000      1.52348e+01
341.000      1.53731e+01
342.000      1.53248e+01
343.000      1.50953e+01
344.000      1.46949e+01
345.000      1.41385e+01
346.000      1.34454e+01
347.000      1.26396e+01
348.000      1.17495e+01
349.000      1.08067e+01
350.000      9.84643e+00
351.000      8.90663e+00
352.000      8.02722e+00
353.000      7.24773e+00
354.000      6.60290e+00
355.000      6.11683e+00
356.000      5.79741e+00
357.000      5.63325e+00
358.000      5.59501e+00
359.000      5.64151e+00
360.000      5.72893e+00
361.000      5.82043e+00
362.000      5.89268e+00
363.000      5.93752e+00
364.000      5.95828e+00
365.000      5.96254e+00
366.000      5.95429e+00
367.000      5.92856e+00
368.000      5.87051e+00
369.000      5.75926e+00
370.000      5.57503e+00
371.000      5.30686e+00
372.000      4.95832e+00
373.000      4.54936e+00
374.000      4.11391e+00
375.000      3.69412e+00
376.000      3.33284e+00
377.000      3.06605e+00
378.000      2.91663e+00
379.000      2.89054e+00
380.000      2.97593e+00
381.000      3.14523e+00
382.000      3.35994e+00
383.000      3.57718e+00
384.000      3.75675e+00
385.000      3.86730e+00
386.000      3.89047e+00
387.000      3.82245e+00
388.000      3.67269e+00
389.000      3.46040e+00
390.000      3.20977e+00
391.000      2.94481e+00
392.000      2.68503e+00
393.000      2.44258e+00
394.000      2.22139e+00
395.000      2.01820e+00
396.000      1.82518e+00
397.000      1.63343e+00
398.000      1.43638e+00
399.000      1.23215e+00
400.000      1.02425e+00
401.000      8.20465e-01
402.000      6.30458e-01
403.000      4.63090e-01
404.000      3.24282e-01
405.000      2.16051e-01
406.000      1.36746e-01
407.000      8.21343e-02
408.000      4.67767e-02
409.000      2.52448e-02
410.000      1.29050e-02
411.000      6.24674e-03
412.000      2.86254e-03
413.000      1.24159e-03
414.000      5.09653e-04
415.000      1.97972e-04
416.000      7.27670e-05
417.000      2.53072e-05
418.000      8.32756e-06
419.000      2.59264e-06
420.000      7.63676e-07
421.000      2.12819e-07
422.000      5.61106e-08
423.000      1.39961e-08
424.000      3.30287e-09
425.000      7.37395e-10
426.000      1.55751e-10
427.000      3.11230e-11
428.000      5.88371e-12
429.000      1.05230e-12
430.000      1.78053e-13
431.000      2.85021e-14
432.000      4.31640e-15
433.000      6.18422e-16
434.000      8.38236e-17
435.000      1.07489e-17
436.000      1.30401e-18
437.000      1.49664e-19
438.000      1.62506e-20
439.000      1.66932e-21
440.000      1.62228e-22
441.000      1.49153e-23
442.000      1.29734e-24
443.000      1.06757e-25
444.000      8.31099e-27
445.000      6.12109e-28
446.000      4.26503e-29
447.000      2.81146e-30
448.000      1.75332e-31
449.000      1.03444e-32
450.000      5.77392e-34
451.000      3.04896e-35
452.000      1.52318e-36
453.000      7.19893e-38
454.000      3.21886e-39
455.000      1.36161e-40
456.000      5.44908e-42
457.000      2.06305e-43
458.000      7.38949e-45
459.000      2.50401e-46
460.000      8.02743e-48
461.000      2.43463e-49
462.000      6.98568e-51
463.000      1.89627e-52
464.000      4.86980e-54
465.000      1.18315e-55
466.000      2.71947e-57
467.000      5.91354e-59
468.000      1.21654e-60
469.000      2.36770e-62
470.000      4.35955e-64
471.000      7.59408e-66
472.000      1.25149e-67
473.000      1.95117e-69
474.000      2.87793e-71
475.000      4.01591e-73
476.000      5.30158e-75
477.000      6.62132e-77
478.000      7.82350e-79
479.000      8.74531e-81
480.000      9.24841e-83
481.000      9.25287e-85
482.000      8.75797e-87
483.000      7.84238e-89
484.000      6.64370e-91
485.000      5.32463e-93
486.000      4.03726e-95
487.000      2.89602e-97
488.000      1.96533e-99
489.000     1.26178e-101
490.000     7.66395e-104
491.000     4.40390e-106
492.000     2.39409e-108
493.000     1.23129e-110
494.000     5.99100e-113
495.000     2.75775e-115
496.000     1.20096e-117
497.000     4.94788e-120
498.000     1.92854e-122
499.000     7.11138e-125
500.000     2.48084e-127
