# Gaussian folded, width=10 cm^-1
# [cm^-1] arbitrary
0.000      3.00000e+00
1.000      2.91796e+00
2.000      2.68508e+00
3.000      2.33749e+00
4.000      1.92514e+00
5.000      1.50000e+00
6.000      1.10570e+00
7.000      7.71085e-01
8.000      5.08727e-01
9.000      3.17530e-01
10.000      1.87501e-01
11.000      1.04748e-01
12.000      5.53662e-02
13.000      2.77026e-02
14.000      1.31641e-02
15.000      6.06522e-03
16.000      3.04724e-03
17.000      2.47148e-03
18.000      4.03118e-03
19.000      8.70388e-03
20.000      1.90977e-02
21.000      4.01900e-02
22.000      8.03685e-02
23.000      1.52518e-01
24.000      2.74662e-01
25.000      4.69433e-01
26.000      7.61573e-01
27.000      1.17294e+00
28.000      1.71522e+00
29.000      2.38177e+00
30.000      3.14090e+00
31.000      3.93386e+00
32.000      4.67971e+00
33.000      5.28773e+00
34.000      5.67510e+00
35.000      5.78532e+00
36.000      5.60168e+00
37.000      5.15144e+00
38.000      4.49937e+00
39.000      3.73276e+00
40.000      2.94282e+00
41.000      2.20832e+00
42.000      1.58540e+00
43.000      1.10545e+00
44.000      7.79668e-01
45.000      6.07325e-01
46.000      5.84080e-01
47.000      7.07419e-01
48.000      9.77541e-01
49.000      1.39363e+00
50.000      1.94694e+00
51.000      2.61328e+00
52.000      3.34802e+00
53.000      4.08625e+00
54.000      4.74950e+00
55.000      5.25808e+00
56.000      5.54622e+00
57.000      5.57565e+00
58.000      5.34379e+00
59.000      4.88394e+00
60.000      4.25780e+00
61.000      3.54262e+00
62.000      2.81697e+00
63.000      2.14894e+00
64.000      1.58931e+00
65.000      1.17043e+00
66.000      9.09533e-01
67.000      8.13917e-01
68.000      8.85419e-01
69.000      1.12199e+00
70.000      1.51581e+00
71.000      2.04900e+00
72.000      2.68936e+00
73.000      3.38895e+00
74.000      4.08795e+00
75.000      4.72402e+00
76.000      5.24550e+00
77.000      5.62484e+00
78.000      5.86798e+00
79.000      6.01629e+00
80.000      6.13977e+00
81.000      6.32257e+00
82.000      6.64409e+00
83.000      7.16038e+00
84.000      7.89046e+00
85.000      8.81135e+00
86.000      9.86328e+00
87.000      1.09634e+01
88.000      1.20242e+01
89.000      1.29710e+01
90.000      1.37536e+01
91.000      1.43493e+01
92.000      1.47583e+01
93.000      1.49935e+01
94.000      1.50697e+01
95.000      1.49962e+01
96.000      1.47736e+01
97.000      1.43973e+01
98.000      1.38640e+01
99.000      1.31807e+01
100.000      1.23710e+01
101.000      1.14788e+01
102.000      1.05650e+01
103.000      9.69993e+00
104.000      8.95296e+00
105.000      8.38203e+00
106.000      8.02720e+00
107.000      7.90886e+00
108.000      8.03016e+00
109.000      8.38107e+00
110.000      8.94167e+00
111.000      9.68303e+00
112.000      1.05664e+01
113.000      1.15422e+01
114.000      1.25521e+01
115.000      1.35330e+01
116.000      1.44248e+01
117.000      1.51779e+01
118.000      1.57597e+01
119.000      1.61579e+01
120.000      1.63797e+01
121.000      1.64485e+01
122.000      1.63974e+01
123.000      1.62610e+01
124.000      1.60685e+01
125.000      1.58380e+01
126.000      1.55755e+01
127.000      1.52775e+01
128.000      1.49382e+01
129.000      1.45559e+01
130.000      1.41385e+01
131.000      1.37033e+01
132.000      1.32728e+01
133.000      1.28677e+01
134.000      1.25002e+01
135.000      1.21705e+01
136.000      1.18679e+01
137.000      1.15749e+01
138.000      1.12741e+01
139.000      1.09534e+01
140.000      1.06092e+01
141.000      1.02465e+01
142.000      9.87576e+00
143.000      9.50913e+00
144.000      9.15705e+00
145.000      8.82641e+00
146.000      8.52052e+00
147.000      8.24019e+00
148.000      7.98463e+00
149.000      7.75152e+00
150.000      7.53635e+00
151.000      7.33212e+00
152.000      7.13019e+00
153.000      6.92268e+00
154.000      6.70562e+00
155.000      6.48121e+00
156.000      6.25799e+00
157.000      6.04844e+00
158.000      5.86506e+00
159.000      5.71651e+00
160.000      5.60554e+00
161.000      5.52968e+00
162.000      5.48409e+00
163.000      5.46543e+00
164.000      5.47494e+00
165.000      5.51937e+00
166.000      5.60932e+00
167.000      5.75564e+00
168.000      5.96533e+00
169.000      6.23867e+00
170.000      6.56869e+00
171.000      6.94338e+00
172.000      7.34973e+00
173.000      7.77797e+00
174.000      8.22449e+00
175.000      8.69232e+00
176.000      9.18902e+00
177.000      9.72271e+00
178.000      1.02977e+01
179.000      1.09106e+01
180.000      1.15488e+01
181.000      1.21907e+01
182.000      1.28083e+01
183.000      1.33718e+01
184.000      1.38544e+01
185.000      1.42375e+01
186.000      1.45145e+01
187.000      1.46919e+01
188.000      1.47887e+01
189.000      1.48329e+01
190.000      1.48564e+01
191.000      1.48898e+01
192.000      1.49573e+01
193.000      1.50744e+01
194.000      1.52478e+01
195.000      1.54774e+01
196.000      1.57604e+01
197.000      1.60938e+01
198.000      1.64758e+01
199.000      1.69048e+01
200.000      1.73749e+01
201.000      1.78710e+01
202.000      1.83645e+01
203.000      1.88119e+01
204.000      1.91580e+01
205.000      1.93434e+01
206.000      1.93150e+01
207.000      1.90379e+01
208.000      1.85043e+01
209.000      1.77375e+01
210.000      1.67897e+01
211.000      1.57332e+01
212.000      1.46491e+01
213.000      1.36143e+01
214.000      1.26931e+01
215.000      1.19326e+01
216.000      1.13636e+01
217.000      1.10035e+01
218.000      1.08600e+01
219.000      1.09306e+01
220.000      1.12006e+01
221.000      1.16402e+01
222.000      1.22035e+01
223.000      1.28323e+01
224.000      1.34648e+01
225.000      1.40469e+01
226.000      1.45420e+01
227.000      1.49366e+01
228.000      1.52400e+01
229.000      1.54791e+01
230.000      1.56896e+01
231.000      1.59081e+01
232.000      1.61639e+01
233.000      1.64750e+01
234.000      1.68452e+01
235.000      1.72647e+01
236.000      1.77129e+01
237.000      1.81629e+01
238.000      1.85867e+01
239.000      1.89607e+01
240.000      1.92691e+01
241.000      1.95060e+01
242.000      1.96753e+01
243.000      1.97886e+01
244.000      1.98614e+01
245.000      1.99075e+01
246.000      1.99328e+01
247.000      1.99288e+01
248.000      1.98691e+01
249.000      1.97095e+01
250.000      1.93942e+01
251.000      1.88669e+01
252.000      1.80856e+01
253.000      1.70364e+01
254.000      1.57435e+01
255.000      1.42712e+01
256.000      1.27171e+01
257.000      1.11973e+01
258.000      9.82664e+00
259.000      8.69857e+00
260.000      7.86978e+00
261.000      7.35199e+00
262.000      7.11310e+00
263.000      7.08650e+00
264.000      7.18593e+00
265.000      7.32222e+00
266.000      7.41837e+00
267.000      7.42041e+00
268.000      7.30317e+00
269.000      7.07129e+00
270.000      6.75666e+00
271.000      6.41358e+00
272.000      6.11198e+00
273.000      5.92849e+00
274.000      5.93511e+00
275.000      6.18577e+00
276.000      6.70289e+00
277.000      7.46708e+00
278.000      8.41429e+00
279.000      9.44296e+00
280.000      1.04316e+01
281.000      1.12626e+01
282.000      1.18470e+01
283.000      1.21405e+01
284.000      1.21483e+01
285.000      1.19163e+01
286.000      1.15126e+01
287.000      1.10075e+01
288.000      1.04572e+01
289.000      9.89674e+00
290.000      9.34073e+00
291.000      8.79063e+00
292.000      8.24289e+00
293.000      7.69522e+00
294.000      7.14930e+00
295.000      6.61029e+00
296.000      6.08455e+00
297.000      5.57728e+00
298.000      5.09154e+00
299.000      4.62916e+00
300.000      4.19350e+00
301.000      3.79268e+00
302.000      3.44194e+00
303.000      3.16322e+00
304.000      2.98116e+00
305.000      2.91631e+00
306.000      2.97732e+00
307.000      3.15527e+00
308.000      3.42225e+00
309.000      3.73545e+00
310.000      4.04559e+00
311.000      4.30722e+00
312.000      4.48762e+00
313.000      4.57186e+00
314.000      4.56288e+00
315.000      4.47767e+00
316.000      4.34174e+00
317.000      4.18405e+00
318.000      4.03410e+00
319.000      3.92105e+00
320.000      3.87359e+00
321.000      3.91911e+00
322.000      4.08091e+00
323.000      4.37390e+00
324.000      4.80008e+00
325.000      5.34577e+00
326.000      5.98224e+00
327.000      6.67023e+00
328.000      7.36751e+00
329.000      8.03746e+00
330.000      8.65607e+00
331.000      9.21535e+00
332.000      9.72246e+00
333.000      1.01949e+01
334.000      1.06536e+01
335.000      1.11159e+01
336.000      1.15899e+01
337.000      1.20712e+01
338.000      1.25434e+01
339.000      1.29798e+01
340.000      1.33484e+01
341.000      1.36175e+01
342.000      1.37616e+01
343.000      1.37659e+01
344.000      1.36285e+01
345.000      1.33602e+01
346.000      1.29813e+01
347.000      1.25182e+01
348.000      1.19992e+01
349.000      1.14514e+01
350.000      1.08988e+01
351.000      1.03601e+01
352.000      9.84792e+00
353.000      9.36819e+00
354.000      8.92058e+00
355.000      8.50006e+00
356.000      8.09940e+00
357.000      7.71209e+00
358.000      7.33490e+00
359.000      6.96937e+00
360.000      6.62166e+00
361.000      6.30076e+00
362.000      6.01537e+00
363.000      5.77042e+00
364.000      5.56433e+00
365.000      5.38798e+00
366.000      5.22589e+00
367.000      5.05936e+00
368.000      4.87080e+00
369.000      4.64812e+00
370.000      4.38801e+00
371.000      4.09738e+00
372.000      3.79274e+00
373.000      3.49799e+00
374.000      3.24109e+00
375.000      3.05039e+00
376.000      2.95101e+00
377.000      2.96160e+00
378.000      3.09179e+00
379.000      3.34017e+00
380.000      3.69328e+00
381.000      4.12519e+00
382.000      4.59801e+00
383.000      5.06345e+00
384.000      5.46621e+00
385.000      5.74985e+00
386.000      5.86517e+00
387.000      5.77994e+00
388.000      5.48726e+00
389.000      5.00980e+00
390.000      4.39745e+00
391.000      3.71849e+00
392.000      3.04617e+00
393.000      2.44466e+00
394.000      1.95777e+00
395.000      1.60337e+00
396.000      1.37404e+00
397.000      1.24298e+00
398.000      1.17307e+00
399.000      1.12656e+00
400.000      1.07304e+00
401.000      9.94309e-01
402.000      8.85362e-01
403.000      7.52172e-01
404.000      6.07293e-01
405.000      4.64988e-01
406.000      3.37254e-01
407.000      2.31571e-01
408.000      1.50481e-01
409.000      9.25302e-02
410.000      5.38326e-02
411.000      2.96312e-02
412.000      1.54306e-02
413.000      7.60222e-03
414.000      3.54339e-03
415.000      1.56249e-03
416.000      6.51831e-04
417.000      2.57259e-04
418.000      9.60559e-05
419.000      3.39309e-05
420.000      1.13392e-05
421.000      3.58501e-06
422.000      1.07230e-06
423.000      3.03429e-07
424.000      8.12299e-08
425.000      2.05728e-08
426.000      4.92933e-09
427.000      1.11738e-09
428.000      2.39624e-10
429.000      4.86158e-11
430.000      9.33130e-12
431.000      1.69443e-12
432.000      2.91088e-13
433.000      4.73089e-14
434.000      7.27408e-15
435.000      1.05811e-15
436.000      1.45614e-16
437.000      1.89579e-17
438.000      2.33505e-18
439.000      2.72094e-19
440.000      2.99958e-20
441.000      3.12837e-21
442.000      3.08670e-22
443.000      2.88130e-23
444.000      2.54449e-24
445.000      2.12583e-25
446.000      1.68026e-26
447.000      1.25643e-27
448.000      8.88836e-29
449.000      5.94869e-30
450.000      3.76650e-31
451.000      2.25617e-32
452.000      1.27857e-33
453.000      6.85480e-35
454.000      3.47682e-36
455.000      1.66835e-37
456.000      7.57373e-39
457.000      3.25274e-40
458.000      1.32162e-41
459.000      5.08023e-43
460.000      1.84746e-44
461.000      6.35604e-46
462.000      2.06878e-47
463.000      6.37031e-49
464.000      1.85577e-50
465.000      5.11452e-52
466.000      1.33353e-53
467.000      3.28942e-55
468.000      7.67633e-57
469.000      1.69475e-58
470.000      3.53976e-60
471.000      6.99457e-62
472.000      1.30757e-63
473.000      2.31253e-65
474.000      3.86924e-67
475.000      6.12468e-69
476.000      9.17187e-71
477.000      1.29942e-72
478.000      1.74165e-74
479.000      2.20845e-76
480.000      2.64931e-78
481.000      3.00673e-80
482.000      3.22831e-82
483.000      3.27924e-84
484.000      3.15129e-86
485.000      2.86498e-88
486.000      2.46418e-90
487.000      2.00512e-92
488.000      1.54357e-94
489.000      1.12416e-96
490.000      7.74552e-99
491.000     5.04881e-101
492.000     3.11347e-103
493.000     1.81643e-105
494.000     1.00256e-107
495.000     5.23503e-110
496.000     2.58610e-112
497.000     1.20862e-114
498.000     5.34382e-117
499.000     2.23528e-119
500.000     8.84562e-122
