# Gaussian folded, width=10 cm^-1
# [cm^-1] arbitrary
0.000      3.00000e+00
1.000      2.91796e+00
2.000      2.68508e+00
3.000      2.33749e+00
4.000      1.92514e+00
5.000      1.50000e+00
6.000      1.10570e+00
7.000      7.71085e-01
8.000      5.08727e-01
9.000      3.17529e-01
10.000      1.87500e-01
11.000      1.04746e-01
12.000      5.53590e-02
13.000      2.76795e-02
14.000      1.30932e-02
15.000      5.85949e-03
16.000      2.48115e-03
17.000      9.95212e-04
18.000      3.81955e-04
19.000      1.52514e-04
20.000      9.93283e-05
21.000      1.69766e-04
22.000      4.30526e-04
23.000      1.11211e-03
24.000      2.74922e-03
25.000      6.45811e-03
26.000      1.44073e-02
27.000      3.05280e-02
28.000      6.14538e-02
29.000      1.17552e-01
30.000      2.13713e-01
31.000      3.69356e-01
32.000      6.06952e-01
33.000      9.48502e-01
34.000      1.40984e+00
35.000      1.99349e+00
36.000      2.68186e+00
37.000      3.43310e+00
38.000      4.18232e+00
39.000      4.84919e+00
40.000      5.35156e+00
41.000      5.62191e+00
42.000      5.62216e+00
43.000      5.35254e+00
44.000      4.85140e+00
45.000      4.18630e+00
46.000      3.43913e+00
47.000      2.68975e+00
48.000      2.00262e+00
49.000      1.41933e+00
50.000      9.57530e-01
51.000      6.14972e-01
52.000      3.76347e-01
53.000      2.20410e-01
54.000      1.25835e-01
55.000      7.51121e-02
56.000      5.66273e-02
57.000      6.54985e-02
58.000      1.03700e-01
59.000      1.79761e-01
60.000      3.07914e-01
61.000      5.06311e-01
62.000      7.93846e-01
63.000      1.18546e+00
64.000      1.68642e+00
65.000      2.28673e+00
66.000      2.95742e+00
67.000      3.65049e+00
68.000      4.30341e+00
69.000      4.84800e+00
70.000      5.22200e+00
71.000      5.38062e+00
72.000      5.30516e+00
73.000      5.00654e+00
74.000      4.52293e+00
75.000      3.91222e+00
76.000      3.24155e+00
77.000      2.57646e+00
78.000      1.97220e+00
79.000      1.46869e+00
80.000      1.08953e+00
81.000      8.44241e-01
82.000      7.32186e-01
83.000      7.46797e-01
84.000      8.78759e-01
85.000      1.11775e+00
86.000      1.45268e+00
87.000      1.87080e+00
88.000      2.35599e+00
89.000      2.88674e+00
90.000      3.43431e+00
91.000      3.96210e+00
92.000      4.42723e+00
93.000      4.78514e+00
94.000      4.99720e+00
95.000      5.03986e+00
96.000      4.91313e+00
97.000      4.64537e+00
98.000      4.29256e+00
99.000      3.93122e+00
100.000      3.64642e+00
101.000      3.51731e+00
102.000      3.60346e+00
103.000      3.93476e+00
104.000      4.50690e+00
105.000      5.28301e+00
106.000      6.20081e+00
107.000      7.18375e+00
108.000      8.15366e+00
109.000      9.04254e+00
110.000      9.80140e+00
111.000      1.04047e+01
112.000      1.08502e+01
113.000      1.11545e+01
114.000      1.13453e+01
115.000      1.14527e+01
116.000      1.15000e+01
117.000      1.14970e+01
118.000      1.14374e+01
119.000      1.13016e+01
120.000      1.10645e+01
121.000      1.07062e+01
122.000      1.02228e+01
123.000      9.63255e+00
124.000      8.97620e+00
125.000      8.31063e+00
126.000      7.69815e+00
127.000      7.19481e+00
128.000      6.84077e+00
129.000      6.65470e+00
130.000      6.63277e+00
131.000      6.75187e+00
132.000      6.97592e+00
133.000      7.26405e+00
134.000      7.57896e+00
135.000      7.89353e+00
136.000      8.19398e+00
137.000      8.47870e+00
138.000      8.75344e+00
139.000      9.02465e+00
140.000      9.29376e+00
141.000      9.55439e+00
142.000      9.79338e+00
143.000      9.99490e+00
144.000      1.01457e+01
145.000      1.02393e+01
146.000      1.02789e+01
147.000      1.02762e+01
148.000      1.02498e+01
149.000      1.02207e+01
150.000      1.02087e+01
151.000      1.02283e+01
152.000      1.02866e+01
153.000      1.03828e+01
154.000      1.05100e+01
155.000      1.06585e+01
156.000      1.08186e+01
157.000      1.09836e+01
158.000      1.11487e+01
159.000      1.13098e+01
160.000      1.14595e+01
161.000      1.15850e+01
162.000      1.16678e+01
163.000      1.16860e+01
164.000      1.16193e+01
165.000      1.14542e+01
166.000      1.11871e+01
167.000      1.08247e+01
168.000      1.03807e+01
169.000      9.87076e+00
170.000      9.30885e+00
171.000      8.70516e+00
172.000      8.06810e+00
173.000      7.40835e+00
174.000      6.74299e+00
175.000      6.09730e+00
176.000      5.50298e+00
177.000      4.99307e+00
178.000      4.59548e+00
179.000      4.32766e+00
180.000      4.19407e+00
181.000      4.18704e+00
182.000      4.28993e+00
183.000      4.48083e+00
184.000      4.73534e+00
185.000      5.02818e+00
186.000      5.33393e+00
187.000      5.62823e+00
188.000      5.88971e+00
189.000      6.10240e+00
190.000      6.25785e+00
191.000      6.35571e+00
192.000      6.40274e+00
193.000      6.41031e+00
194.000      6.39161e+00
195.000      6.35911e+00
196.000      6.32283e+00
197.000      6.28926e+00
198.000      6.26054e+00
199.000      6.23403e+00
200.000      6.20231e+00
201.000      6.15416e+00
202.000      6.07698e+00
203.000      5.96024e+00
204.000      5.79916e+00
205.000      5.59740e+00
206.000      5.36732e+00
207.000      5.12753e+00
208.000      4.89815e+00
209.000      4.69539e+00
210.000      4.52710e+00
211.000      4.39095e+00
212.000      4.27548e+00
213.000      4.16357e+00
214.000      4.03695e+00
215.000      3.88026e+00
216.000      3.68371e+00
217.000      3.44387e+00
218.000      3.16305e+00
219.000      2.84797e+00
220.000      2.50830e+00
221.000      2.15562e+00
222.000      1.80261e+00
223.000      1.46230e+00
224.000      1.14707e+00
225.000      8.67312e-01
226.000      6.30222e-01
227.000      4.38897e-01
228.000      2.92245e-01
229.000      1.85680e-01
230.000      1.12378e-01
231.000      6.46983e-02
232.000      3.53925e-02
233.000      1.83799e-02
234.000      9.05478e-03
235.000      4.22927e-03
236.000      1.87201e-03
237.000      7.84972e-04
238.000      3.11730e-04
239.000      1.17216e-04
240.000      4.17252e-05
241.000      1.40591e-05
242.000      4.48349e-06
243.000      1.35312e-06
244.000      3.86445e-07
245.000      1.04435e-07
246.000      2.67055e-08
247.000      6.46256e-09
248.000      1.48620e-09
249.000      3.58352e-10
250.000      2.58864e-10
251.000      9.42578e-10
252.000      4.23600e-09
253.000      1.82371e-08
254.000      7.43202e-08
255.000      2.86547e-07
256.000      1.04524e-06
257.000      3.60723e-06
258.000      1.17779e-05
259.000      3.63835e-05
260.000      1.06339e-04
261.000      2.94065e-04
262.000      7.69436e-04
263.000      1.90503e-03
264.000      4.46342e-03
265.000      9.89728e-03
266.000      2.07739e-02
267.000      4.12834e-02
268.000      7.77025e-02
269.000      1.38584e-01
270.000      2.34376e-01
271.000      3.76252e-01
272.000      5.74164e-01
273.000      8.34567e-01
274.000      1.15865e+00
275.000      1.54205e+00
276.000      1.97654e+00
277.000      2.45323e+00
278.000      2.96566e+00
279.000      3.51054e+00
280.000      4.08470e+00
281.000      4.67854e+00
282.000      5.26901e+00
283.000      5.81660e+00
284.000      6.27018e+00
285.000      6.58075e+00
286.000      6.72069e+00
287.000      6.70156e+00
288.000      6.58295e+00
289.000      6.46695e+00
290.000      6.47836e+00
291.000      6.73556e+00
292.000      7.32063e+00
293.000      8.25739e+00
294.000      9.50356e+00
295.000      1.09582e+01
296.000      1.24816e+01
297.000      1.39205e+01
298.000      1.51334e+01
299.000      1.60089e+01
300.000      1.64772e+01
301.000      1.65146e+01
302.000      1.61441e+01
303.000      1.54330e+01
304.000      1.44885e+01
305.000      1.34476e+01
306.000      1.24604e+01
307.000      1.16673e+01
308.000      1.11732e+01
309.000      1.10257e+01
310.000      1.12041e+01
311.000      1.16232e+01
312.000      1.21527e+01
313.000      1.26471e+01
314.000      1.29800e+01
315.000      1.30738e+01
316.000      1.29184e+01
317.000      1.25746e+01
318.000      1.21622e+01
319.000      1.18348e+01
320.000      1.17498e+01
321.000      1.20394e+01
322.000      1.27900e+01
323.000      1.40338e+01
324.000      1.57516e+01
325.000      1.78830e+01
326.000      2.03371e+01
327.000      2.30011e+01
328.000      2.57444e+01
329.000      2.84220e+01
330.000      3.08795e+01
331.000      3.29640e+01
332.000      3.45412e+01
333.000      3.55132e+01
334.000      3.58350e+01
335.000      3.55218e+01
336.000      3.46463e+01
337.000      3.33267e+01
338.000      3.17080e+01
339.000      2.99427e+01
340.000      2.81745e+01
341.000      2.65274e+01
342.000      2.51015e+01
343.000      2.39721e+01
344.000      2.31920e+01
345.000      2.27935e+01
346.000      2.27883e+01
347.000      2.31661e+01
348.000      2.38907e+01
349.000      2.48965e+01
350.000      2.60875e+01
351.000      2.73419e+01
352.000      2.85235e+01
353.000      2.94996e+01
354.000      3.01609e+01
355.000      3.04391e+01
356.000      3.03153e+01
357.000      2.98166e+01
358.000      2.90030e+01
359.000      2.79478e+01
360.000      2.67189e+01
361.000      2.53663e+01
362.000      2.39191e+01
363.000      2.23893e+01
364.000      2.07811e+01
365.000      1.91002e+01
366.000      1.73614e+01
367.000      1.55925e+01
368.000      1.38350e+01
369.000      1.21419e+01
370.000      1.05730e+01
371.000      9.18858e+00
372.000      8.04136e+00
373.000      7.16891e+00
374.000      6.58763e+00
375.000      6.29051e+00
376.000      6.24994e+00
377.000      6.42591e+00
378.000      6.77803e+00
379.000      7.27836e+00
380.000      7.92048e+00
381.000      8.72094e+00
382.000      9.71088e+00
383.000      1.09194e+01
384.000      1.23539e+01
385.000      1.39853e+01
386.000      1.57452e+01
387.000      1.75371e+01
388.000      1.92596e+01
389.000      2.08300e+01
390.000      2.21996e+01
391.000      2.33526e+01
392.000      2.42885e+01
393.000      2.49974e+01
394.000      2.54399e+01
395.000      2.55426e+01
396.000      2.52122e+01
397.000      2.43646e+01
398.000      2.29568e+01
399.000      2.10113e+01
400.000      1.86226e+01
401.000      1.59462e+01
402.000      1.31721e+01
403.000      1.04924e+01
404.000      8.07052e+00
405.000      6.02019e+00
406.000      4.39601e+00
407.000      3.19651e+00
408.000      2.37628e+00
409.000      1.86310e+00
410.000      1.57589e+00
411.000      1.44013e+00
412.000      1.39852e+00
413.000      1.41582e+00
414.000      1.47789e+00
415.000      1.58620e+00
416.000      1.74945e+00
417.000      1.97473e+00
418.000      2.26040e+00
419.000      2.59215e+00
420.000      2.94306e+00
421.000      3.27721e+00
422.000      3.55597e+00
423.000      3.74536e+00
424.000      3.82245e+00
425.000      3.77943e+00
426.000      3.62399e+00
427.000      3.37627e+00
428.000      3.06329e+00
429.000      2.71300e+00
430.000      2.34968e+00
431.000      1.99201e+00
432.000      1.65348e+00
433.000      1.34438e+00
434.000      1.07374e+00
435.000      8.50251e-01
436.000      6.81937e-01
437.000      5.74709e-01
438.000      5.30533e-01
439.000      5.45805e-01
440.000      6.10438e-01
441.000      7.08068e-01
442.000      8.17631e-01
443.000      9.16298e-01
444.000      9.83334e-01
445.000      1.00399e+00
446.000      9.72291e-01
447.000      8.91859e-01
448.000      7.74371e-01
449.000      6.36249e-01
450.000      4.94621e-01
451.000      3.63795e-01
452.000      2.53145e-01
453.000      1.66650e-01
454.000      1.03791e-01
455.000      6.11553e-02
456.000      3.40899e-02
457.000      1.79777e-02
458.000      8.96937e-03
459.000      4.23357e-03
460.000      1.89047e-03
461.000      7.98636e-04
462.000      3.19188e-04
463.000      1.20687e-04
464.000      4.31712e-05
465.000      1.46098e-05
466.000      4.67749e-06
467.000      1.41677e-06
468.000      4.05977e-07
469.000      1.10058e-07
470.000      2.82267e-08
471.000      6.84883e-09
472.000      1.57214e-09
473.000      3.41414e-10
474.000      7.01439e-11
475.000      1.36338e-11
476.000      2.50703e-12
477.000      4.36136e-13
478.000      7.17796e-14
479.000      1.11763e-14
480.000      1.64631e-15
481.000      2.29427e-16
482.000      3.02478e-17
483.000      3.77277e-18
484.000      4.45190e-19
485.000      4.96990e-20
486.000      5.24890e-21
487.000      5.24452e-22
488.000      4.95748e-23
489.000      4.43336e-24
490.000      3.75080e-25
491.000      3.00215e-26
492.000      2.27330e-27
493.000      1.62855e-28
494.000      1.10373e-29
495.000      7.07684e-31
496.000      4.29275e-32
497.000      2.46348e-33
498.000      1.33746e-34
499.000      6.86956e-36
500.000      3.33807e-37
