# Gaussian folded, width=10 cm^-1
# [cm^-1] arbitrary
0.000      3.00000e+00
1.000      2.91796e+00
2.000      2.68508e+00
3.000      2.33749e+00
4.000      1.92514e+00
5.000      1.50000e+00
6.000      1.10570e+00
7.000      7.71085e-01
8.000      5.08727e-01
9.000      3.17529e-01
10.000      1.87500e-01
11.000      1.04746e-01
12.000      5.53590e-02
13.000      2.76795e-02
14.000      1.30932e-02
15.000      5.85950e-03
16.000      2.48117e-03
17.000      9.95294e-04
18.000      3.82200e-04
19.000      1.53192e-04
20.000      1.01075e-04
21.000      1.73943e-04
22.000      4.39748e-04
23.000      1.13075e-03
24.000      2.78328e-03
25.000      6.51303e-03
26.000      1.44815e-02
27.000      3.06001e-02
28.000      6.14626e-02
29.000      1.17376e-01
30.000      2.13164e-01
31.000      3.68212e-01
32.000      6.05059e-01
33.000      9.45951e-01
34.000      1.40719e+00
35.000      1.99195e+00
36.000      2.68328e+00
37.000      3.43970e+00
38.000      4.19601e+00
39.000      4.87083e+00
40.000      5.38023e+00
41.000      5.65464e+00
42.000      5.65439e+00
43.000      5.37910e+00
44.000      4.86791e+00
45.000      4.19031e+00
46.000      3.43070e+00
47.000      2.67122e+00
48.000      1.97782e+00
49.000      1.39243e+00
50.000      9.32071e-01
51.000      5.93297e-01
52.000      3.59474e-01
53.000      2.08264e-01
54.000      1.17638e-01
55.000      6.97352e-02
56.000      5.28176e-02
57.000      6.19354e-02
58.000      9.89496e-02
59.000      1.72229e-01
60.000      2.95947e-01
61.000      4.88563e-01
62.000      7.69978e-01
63.000      1.15705e+00
64.000      1.65776e+00
65.000      2.26499e+00
66.000      2.95182e+00
67.000      3.67015e+00
68.000      4.35441e+00
69.000      4.93051e+00
70.000      5.32877e+00
71.000      5.49764e+00
72.000      5.41464e+00
73.000      5.09128e+00
74.000      4.57057e+00
75.000      3.91791e+00
76.000      3.20814e+00
77.000      2.51242e+00
78.000      1.88830e+00
79.000      1.37480e+00
80.000      9.92743e-01
81.000      7.48787e-01
82.000      6.41104e-01
83.000      6.64482e-01
84.000      8.13309e-01
85.000      1.08186e+00
86.000      1.46217e+00
87.000      1.94049e+00
88.000      2.49373e+00
89.000      3.08738e+00
90.000      3.67615e+00
91.000      4.20794e+00
92.000      4.63102e+00
93.000      4.90297e+00
94.000      4.99946e+00
95.000      4.92039e+00
96.000      4.69189e+00
97.000      4.36350e+00
98.000      4.00150e+00
99.000      3.67985e+00
100.000      3.47054e+00
101.000      3.43433e+00
102.000      3.61266e+00
103.000      4.02148e+00
104.000      4.64780e+00
105.000      5.45050e+00
106.000      6.36620e+00
107.000      7.31991e+00
108.000      8.23863e+00
109.000      9.06444e+00
110.000      9.76356e+00
111.000      1.03286e+01
112.000      1.07736e+01
113.000      1.11237e+01
114.000      1.14030e+01
115.000      1.16245e+01
116.000      1.17844e+01
117.000      1.18640e+01
118.000      1.18353e+01
119.000      1.16711e+01
120.000      1.13545e+01
121.000      1.08851e+01
122.000      1.02815e+01
123.000      9.57915e+00
124.000      8.82432e+00
125.000      8.06769e+00
126.000      7.35849e+00
127.000      6.74078e+00
128.000      6.25150e+00
129.000      5.91932e+00
130.000      5.76301e+00
131.000      5.78900e+00
132.000      5.98880e+00
133.000      6.33811e+00
134.000      6.79885e+00
135.000      7.32489e+00
136.000      7.87013e+00
137.000      8.39676e+00
138.000      8.88107e+00
139.000      9.31497e+00
140.000      9.70339e+00
141.000      1.00586e+01
142.000      1.03936e+01
143.000      1.07170e+01
144.000      1.10284e+01
145.000      1.13178e+01
146.000      1.15650e+01
147.000      1.17430e+01
148.000      1.18227e+01
149.000      1.17808e+01
150.000      1.16085e+01
151.000      1.13186e+01
152.000      1.09472e+01
153.000      1.05493e+01
154.000      1.01870e+01
155.000      9.91541e+00
156.000      9.76922e+00
157.000      9.75565e+00
158.000      9.85550e+00
159.000      1.00314e+01
160.000      1.02394e+01
161.000      1.04406e+01
162.000      1.06070e+01
163.000      1.07230e+01
164.000      1.07814e+01
165.000      1.07780e+01
166.000      1.07071e+01
167.000      1.05597e+01
168.000      1.03258e+01
169.000      9.99810e+00
170.000      9.57562e+00
171.000      9.06651e+00
172.000      8.48769e+00
173.000      7.86270e+00
174.000      7.21860e+00
175.000      6.58310e+00
176.000      5.98256e+00
177.000      5.44094e+00
178.000      4.97902e+00
179.000      4.61346e+00
180.000      4.35548e+00
181.000      4.20932e+00
182.000      4.17127e+00
183.000      4.22962e+00
184.000      4.36617e+00
185.000      4.55887e+00
186.000      4.78545e+00
187.000      5.02714e+00
188.000      5.27156e+00
189.000      5.51388e+00
190.000      5.75555e+00
191.000      6.00082e+00
192.000      6.25191e+00
193.000      6.50463e+00
194.000      6.74620e+00
195.000      6.95635e+00
196.000      7.11156e+00
197.000      7.19113e+00
198.000      7.18318e+00
199.000      7.08859e+00
200.000      6.92170e+00
201.000      6.70731e+00
202.000      6.47441e+00
203.000      6.24840e+00
204.000      6.04397e+00
205.000      5.86148e+00
206.000      5.68821e+00
207.000      5.50458e+00
208.000      5.29294e+00
209.000      5.04529e+00
210.000      4.76674e+00
211.000      4.47319e+00
212.000      4.18447e+00
213.000      3.91626e+00
214.000      3.67440e+00
215.000      3.45366e+00
216.000      3.24092e+00
217.000      3.02084e+00
218.000      2.78116e+00
219.000      2.51610e+00
220.000      2.22710e+00
221.000      1.92164e+00
222.000      1.61109e+00
223.000      1.30847e+00
224.000      1.02638e+00
225.000      7.75314e-01
226.000      5.62403e-01
227.000      3.90734e-01
228.000      2.59398e-01
229.000      1.64219e-01
230.000      9.89741e-02
231.000      5.67096e-02
232.000      3.08565e-02
233.000      1.59298e-02
234.000      7.79746e-03
235.000      3.61694e-03
236.000      1.58928e-03
237.000      6.61293e-04
238.000      2.60508e-04
239.000      9.71412e-05
240.000      3.42832e-05
241.000      1.14502e-05
242.000      3.61878e-06
243.000      1.08219e-06
244.000      3.06213e-07
245.000      8.19789e-08
246.000      2.07651e-08
247.000      4.97731e-09
248.000      1.13446e-09
249.000      2.75557e-10
250.000      2.20475e-10
251.000      8.37684e-10
252.000      3.78909e-09
253.000      1.63849e-08
254.000      6.70589e-08
255.000      2.59658e-07
256.000      9.51205e-07
257.000      3.29667e-06
258.000      1.08096e-05
259.000      3.35339e-05
260.000      9.84244e-05
261.000      2.73325e-04
262.000      7.18176e-04
263.000      1.78558e-03
264.000      4.20107e-03
265.000      9.35451e-03
266.000      1.97168e-02
267.000      3.93465e-02
268.000      7.43676e-02
269.000      1.33194e-01
270.000      2.26215e-01
271.000      3.64700e-01
272.000      5.58932e-01
273.000      8.15954e-01
274.000      1.13775e+00
275.000      1.52079e+00
276.000      1.95750e+00
277.000      2.43921e+00
278.000      2.95904e+00
279.000      3.51266e+00
280.000      4.09534e+00
281.000      4.69572e+00
282.000      5.28914e+00
283.000      5.83494e+00
284.000      6.28146e+00
285.000      6.57983e+00
286.000      6.70314e+00
287.000      6.66421e+00
288.000      6.52458e+00
289.000      6.38938e+00
290.000      6.38778e+00
291.000      6.64375e+00
292.000      7.24521e+00
293.000      8.22015e+00
294.000      9.52625e+00
295.000      1.10563e+01
296.000      1.26576e+01
297.000      1.41594e+01
298.000      1.54025e+01
299.000      1.62634e+01
300.000      1.66707e+01
301.000      1.66111e+01
302.000      1.61278e+01
303.000      1.53126e+01
304.000      1.42936e+01
305.000      1.32200e+01
306.000      1.22423e+01
307.000      1.14909e+01
308.000      1.10551e+01
309.000      1.09665e+01
310.000      1.11920e+01
311.000      1.16394e+01
312.000      1.21761e+01
313.000      1.26574e+01
314.000      1.29590e+01
315.000      1.30057e+01
316.000      1.27912e+01
317.000      1.23831e+01
318.000      1.19118e+01
319.000      1.15466e+01
320.000      1.14618e+01
321.000      1.18037e+01
322.000      1.26635e+01
323.000      1.40643e+01
324.000      1.59634e+01
325.000      1.82658e+01
326.000      2.08436e+01
327.000      2.35544e+01
328.000      2.62546e+01
329.000      2.88057e+01
330.000      3.10786e+01
331.000      3.29580e+01
332.000      3.43486e+01
333.000      3.51853e+01
334.000      3.54414e+01
335.000      3.51344e+01
336.000      3.43244e+01
337.000      3.31078e+01
338.000      3.16047e+01
339.000      2.99463e+01
340.000      2.82630e+01
341.000      2.66745e+01
342.000      2.52846e+01
343.000      2.41770e+01
344.000      2.34137e+01
345.000      2.30330e+01
346.000      2.30478e+01
347.000      2.34430e+01
348.000      2.41735e+01
349.000      2.51643e+01
350.000      2.63134e+01
351.000      2.75002e+01
352.000      2.85993e+01
353.000      2.94956e+01
354.000      3.01008e+01
355.000      3.03629e+01
356.000      3.02693e+01
357.000      2.98411e+01
358.000      2.91210e+01
359.000      2.81589e+01
360.000      2.69986e+01
361.000      2.56700e+01
362.000      2.41885e+01
363.000      2.25611e+01
364.000      2.07966e+01
365.000      1.89161e+01
366.000      1.69598e+01
367.000      1.49873e+01
368.000      1.30715e+01
369.000      1.12886e+01
370.000      9.70711e+00
371.000      8.38028e+00
372.000      7.34227e+00
373.000      6.60816e+00
374.000      6.17616e+00
375.000      6.03017e+00
376.000      6.14247e+00
377.000      6.47706e+00
378.000      6.99485e+00
379.000      7.66096e+00
380.000      8.45257e+00
381.000      9.36409e+00
382.000      1.04061e+01
383.000      1.15967e+01
384.000      1.29468e+01
385.000      1.44452e+01
386.000      1.60506e+01
387.000      1.76943e+01
388.000      1.92954e+01
389.000      2.07791e+01
390.000      2.20928e+01
391.000      2.32090e+01
392.000      2.41150e+01
393.000      2.47943e+01
394.000      2.52089e+01
395.000      2.52933e+01
396.000      2.49648e+01
397.000      2.41459e+01
398.000      2.27936e+01
399.000      2.09221e+01
400.000      1.86129e+01
401.000      1.60071e+01
402.000      1.32841e+01
403.000      1.06311e+01
404.000      8.21300e+00
405.000      6.14900e+00
406.000      4.50088e+00
407.000      3.27357e+00
408.000      2.42585e+00
409.000      1.88721e+00
410.000      1.57641e+00
411.000      1.41792e+00
412.000      1.35364e+00
413.000      1.34842e+00
414.000      1.38937e+00
415.000      1.47997e+00
416.000      1.63094e+00
417.000      1.85054e+00
418.000      2.13695e+00
419.000      2.47467e+00
420.000      2.83556e+00
421.000      3.18385e+00
422.000      3.48305e+00
423.000      3.70264e+00
424.000      3.82244e+00
425.000      3.83405e+00
426.000      3.73962e+00
427.000      3.54924e+00
428.000      3.27819e+00
429.000      2.94499e+00
430.000      2.57033e+00
431.000      2.17648e+00
432.000      1.78649e+00
433.000      1.42285e+00
434.000      1.10574e+00
435.000      8.51127e-01
436.000      6.69337e-01
437.000      5.64126e-01
438.000      5.32375e-01
439.000      5.64212e-01
440.000      6.43599e-01
441.000      7.49591e-01
442.000      8.58553e-01
443.000      9.47357e-01
444.000      9.97114e-01
445.000      9.96513e-01
446.000      9.43722e-01
447.000      8.46125e-01
448.000      7.17929e-01
449.000      5.76378e-01
450.000      4.37803e-01
451.000      3.14615e-01
452.000      2.13897e-01
453.000      1.37578e-01
454.000      8.37164e-02
455.000      4.81938e-02
456.000      2.62476e-02
457.000      1.35240e-02
458.000      6.59234e-03
459.000      3.04012e-03
460.000      1.32636e-03
461.000      5.47454e-04
462.000      2.13772e-04
463.000      7.89721e-05
464.000      2.76003e-05
465.000      9.12579e-06
466.000      2.85460e-06
467.000      8.44768e-07
468.000      2.36509e-07
469.000      6.26433e-08
470.000      1.56971e-08
471.000      3.72120e-09
472.000      8.34571e-10
473.000      1.77077e-10
474.000      3.55449e-11
475.000      6.75010e-12
476.000      1.21272e-12
477.000      2.06124e-13
478.000      3.31448e-14
479.000      5.04218e-15
480.000      7.25671e-16
481.000      9.88049e-17
482.000      1.27273e-17
483.000      1.55099e-18
484.000      1.78814e-19
485.000      1.95034e-20
486.000      2.01250e-21
487.000      1.96463e-22
488.000      1.81444e-23
489.000      1.58534e-24
490.000      1.31045e-25
491.000      1.02479e-26
492.000      7.58170e-28
493.000      5.30660e-29
494.000      3.51386e-30
495.000      2.20125e-31
496.000      1.30458e-32
497.000      7.31463e-34
498.000      3.87999e-35
499.000      1.94709e-36
500.000      9.24398e-38
