# Gaussian folded, width=10 cm^-1
# [cm^-1] arbitrary
0.000      3.00000e+00
1.000      2.91796e+00
2.000      2.68508e+00
3.000      2.33749e+00
4.000      1.92514e+00
5.000      1.50000e+00
6.000      1.10570e+00
7.000      7.71085e-01
8.000      5.08727e-01
9.000      3.17530e-01
10.000      1.87500e-01
11.000      1.04747e-01
12.000      5.53640e-02
13.000      2.76962e-02
14.000      1.31457e-02
15.000      6.01586e-03
16.000      2.92275e-03
17.000      2.17673e-03
18.000      3.37667e-03
19.000      7.34334e-03
20.000      1.64561e-02
21.000      3.54147e-02
22.000      7.23653e-02
23.000      1.40164e-01
24.000      2.57275e-01
25.000      4.47516e-01
26.000      7.37687e-01
27.000      1.15237e+00
28.000      1.70599e+00
29.000      2.39344e+00
30.000      3.18224e+00
31.000      4.00964e+00
32.000      4.78783e+00
33.000      5.41787e+00
34.000      5.80991e+00
35.000      5.90410e+00
36.000      5.68561e+00
37.000      5.18845e+00
38.000      4.48696e+00
39.000      3.67780e+00
40.000      2.85880e+00
41.000      2.11103e+00
42.000      1.48887e+00
43.000      1.01918e+00
44.000      7.07679e-01
45.000      5.48757e-01
46.000      5.34801e-01
47.000      6.61996e-01
48.000      9.31195e-01
49.000      1.34393e+00
50.000      1.89505e+00
51.000      2.56441e+00
52.000      3.31071e+00
53.000      4.07044e+00
54.000      4.76353e+00
55.000      5.30552e+00
56.000      5.62370e+00
57.000      5.67277e+00
58.000      5.44527e+00
59.000      4.97358e+00
60.000      4.32262e+00
61.000      3.57585e+00
62.000      2.81875e+00
63.000      2.12479e+00
64.000      1.54718e+00
65.000      1.11756e+00
66.000      8.50191e-01
67.000      7.48830e-01
68.000      8.12953e-01
69.000      1.04081e+00
70.000      1.42830e+00
71.000      1.96439e+00
72.000      2.62511e+00
73.000      3.36933e+00
74.000      4.13915e+00
75.000      4.86658e+00
76.000      5.48624e+00
77.000      5.95106e+00
78.000      6.24637e+00
79.000      6.39739e+00
80.000      6.46653e+00
81.000      6.54041e+00
82.000      6.70972e+00
83.000      7.04784e+00
84.000      7.59451e+00
85.000      8.34877e+00
86.000      9.27221e+00
87.000      1.03002e+01
88.000      1.13566e+01
89.000      1.23672e+01
90.000      1.32692e+01
91.000      1.40158e+01
92.000      1.45761e+01
93.000      1.49329e+01
94.000      1.50792e+01
95.000      1.50160e+01
96.000      1.47502e+01
97.000      1.42949e+01
98.000      1.36706e+01
99.000      1.29070e+01
100.000      1.20440e+01
101.000      1.11319e+01
102.000      1.02291e+01
103.000      9.39748e+00
104.000      8.69723e+00
105.000      8.18047e+00
106.000      7.88650e+00
107.000      7.83865e+00
108.000      8.04300e+00
109.000      8.48869e+00
110.000      9.14928e+00
111.000      9.98486e+00
112.000      1.09448e+01
113.000      1.19709e+01
114.000      1.30017e+01
115.000      1.39764e+01
116.000      1.48407e+01
117.000      1.55513e+01
118.000      1.60806e+01
119.000      1.64190e+01
120.000      1.65753e+01
121.000      1.65731e+01
122.000      1.64455e+01
123.000      1.62281e+01
124.000      1.59536e+01
125.000      1.56479e+01
126.000      1.53296e+01
127.000      1.50120e+01
128.000      1.47053e+01
129.000      1.44189e+01
130.000      1.41607e+01
131.000      1.39353e+01
132.000      1.37413e+01
133.000      1.35698e+01
134.000      1.34056e+01
135.000      1.32311e+01
136.000      1.30316e+01
137.000      1.27989e+01
138.000      1.25326e+01
139.000      1.22373e+01
140.000      1.19193e+01
141.000      1.15819e+01
142.000      1.12242e+01
143.000      1.08419e+01
144.000      1.04302e+01
145.000      9.98712e+00
146.000      9.51474e+00
147.000      9.02000e+00
148.000      8.51343e+00
149.000      8.00780e+00
150.000      7.51696e+00
151.000      7.05496e+00
152.000      6.63519e+00
153.000      6.26899e+00
154.000      5.96382e+00
155.000      5.72138e+00
156.000      5.53642e+00
157.000      5.39713e+00
158.000      5.28732e+00
159.000      5.19026e+00
160.000      5.09323e+00
161.000      4.99161e+00
162.000      4.89127e+00
163.000      4.80871e+00
164.000      4.76849e+00
165.000      4.79889e+00
166.000      4.92629e+00
167.000      5.16962e+00
168.000      5.53575e+00
169.000      6.01700e+00
170.000      6.59130e+00
171.000      7.22539e+00
172.000      7.88058e+00
173.000      8.51988e+00
174.000      9.11475e+00
175.000      9.64965e+00
176.000      1.01233e+01
177.000      1.05459e+01
178.000      1.09341e+01
179.000      1.13044e+01
180.000      1.16677e+01
181.000      1.20268e+01
182.000      1.23772e+01
183.000      1.27104e+01
184.000      1.30185e+01
185.000      1.32978e+01
186.000      1.35495e+01
187.000      1.37787e+01
188.000      1.39913e+01
189.000      1.41918e+01
190.000      1.43822e+01
191.000      1.45634e+01
192.000      1.47381e+01
193.000      1.49135e+01
194.000      1.51031e+01
195.000      1.53256e+01
196.000      1.56014e+01
197.000      1.59469e+01
198.000      1.63695e+01
199.000      1.68631e+01
200.000      1.74070e+01
201.000      1.79676e+01
202.000      1.85016e+01
203.000      1.89604e+01
204.000      1.92938e+01
205.000      1.94530e+01
206.000      1.93939e+01
207.000      1.90817e+01
208.000      1.84969e+01
209.000      1.76434e+01
210.000      1.65543e+01
211.000      1.52946e+01
212.000      1.39571e+01
213.000      1.26519e+01
214.000      1.14917e+01
215.000      1.05751e+01
216.000      9.97232e+00
217.000      9.71637e+00
218.000      9.79918e+00
219.000      1.01747e+01
220.000      1.07672e+01
221.000      1.14843e+01
222.000      1.22319e+01
223.000      1.29302e+01
224.000      1.35253e+01
225.000      1.39960e+01
226.000      1.43529e+01
227.000      1.46306e+01
228.000      1.48762e+01
229.000      1.51363e+01
230.000      1.54470e+01
231.000      1.58267e+01
232.000      1.62749e+01
233.000      1.67737e+01
234.000      1.72930e+01
235.000      1.77976e+01
236.000      1.82538e+01
237.000      1.86363e+01
238.000      1.89326e+01
239.000      1.91435e+01
240.000      1.92815e+01
241.000      1.93646e+01
242.000      1.94095e+01
243.000      1.94251e+01
244.000      1.94095e+01
245.000      1.93499e+01
246.000      1.92267e+01
247.000      1.90184e+01
248.000      1.87066e+01
249.000      1.82788e+01
250.000      1.77294e+01
251.000      1.70592e+01
252.000      1.62745e+01
253.000      1.53864e+01
254.000      1.44111e+01
255.000      1.33704e+01
256.000      1.22922e+01
257.000      1.12108e+01
258.000      1.01654e+01
259.000      9.19727e+00
260.000      8.34494e+00
261.000      7.63774e+00
262.000      7.08960e+00
263.000      6.69505e+00
264.000      6.42925e+00
265.000      6.25313e+00
266.000      6.12296e+00
267.000      6.00199e+00
268.000      5.87126e+00
269.000      5.73620e+00
270.000      5.62720e+00
271.000      5.59369e+00
272.000      5.69316e+00
273.000      5.97784e+00
274.000      6.48238e+00
275.000      7.21529e+00
276.000      8.15551e+00
277.000      9.25412e+00
278.000      1.04395e+01
279.000      1.16242e+01
280.000      1.27129e+01
281.000      1.36111e+01
282.000      1.42350e+01
283.000      1.45225e+01
284.000      1.44441e+01
285.000      1.40088e+01
286.000      1.32644e+01
287.000      1.22894e+01
288.000      1.11793e+01
289.000      1.00299e+01
290.000      8.92285e+00
291.000      7.91628e+00
292.000      7.04198e+00
293.000      6.30761e+00
294.000      5.70247e+00
295.000      5.20454e+00
296.000      4.78754e+00
297.000      4.42723e+00
298.000      4.10632e+00
299.000      3.81761e+00
300.000      3.56469e+00
301.000      3.36015e+00
302.000      3.22152e+00
303.000      3.16607e+00
304.000      3.20549e+00
305.000      3.34171e+00
306.000      3.56473e+00
307.000      3.85285e+00
308.000      4.17539e+00
309.000      4.49750e+00
310.000      4.78602e+00
311.000      5.01523e+00
312.000      5.17083e+00
313.000      5.25130e+00
314.000      5.26646e+00
315.000      5.23382e+00
316.000      5.17392e+00
317.000      5.10621e+00
318.000      5.04618e+00
319.000      5.00452e+00
320.000      4.98795e+00
321.000      5.00131e+00
322.000      5.04997e+00
323.000      5.14169e+00
324.000      5.28701e+00
325.000      5.49812e+00
326.000      5.78644e+00
327.000      6.15998e+00
328.000      6.62167e+00
329.000      7.16939e+00
330.000      7.79764e+00
331.000      8.49980e+00
332.000      9.26928e+00
333.000      1.00981e+01
334.000      1.09731e+01
335.000      1.18702e+01
336.000      1.27512e+01
337.000      1.35647e+01
338.000      1.42531e+01
339.000      1.47646e+01
340.000      1.50661e+01
341.000      1.51517e+01
342.000      1.50442e+01
343.000      1.47862e+01
344.000      1.44261e+01
345.000      1.40025e+01
346.000      1.35335e+01
347.000      1.30156e+01
348.000      1.24304e+01
349.000      1.17569e+01
350.000      1.09852e+01
351.000      1.01246e+01
352.000      9.20639e+00
353.000      8.27916e+00
354.000      7.40046e+00
355.000      6.62669e+00
356.000      6.00407e+00
357.000      5.56174e+00
358.000      5.30782e+00
359.000      5.22829e+00
360.000      5.28884e+00
361.000      5.43976e+00
362.000      5.62308e+00
363.000      5.78119e+00
364.000      5.86508e+00
365.000      5.84054e+00
366.000      5.69105e+00
367.000      5.41747e+00
368.000      5.03516e+00
369.000      4.57030e+00
370.000      4.05655e+00
371.000      3.53252e+00
372.000      3.03967e+00
373.000      2.61993e+00
374.000      2.31246e+00
375.000      2.14981e+00
376.000      2.15411e+00
377.000      2.33435e+00
378.000      2.68514e+00
379.000      3.18689e+00
380.000      3.80694e+00
381.000      4.50111e+00
382.000      5.21554e+00
383.000      5.88950e+00
384.000      6.45987e+00
385.000      6.86758e+00
386.000      7.06564e+00
387.000      7.02684e+00
388.000      6.74911e+00
389.000      6.25654e+00
390.000      5.59543e+00
391.000      4.82636e+00
392.000      4.01415e+00
393.000      3.21846e+00
394.000      2.48674e+00
395.000      1.85059e+00
396.000      1.32546e+00
397.000      9.12808e-01
398.000      6.03736e-01
399.000      3.83005e-01
400.000      2.32728e-01
401.000      1.35260e-01
402.000      7.50879e-02
403.000      3.97639e-02
404.000      2.00637e-02
405.000      9.63546e-03
406.000      4.40017e-03
407.000      1.90918e-03
408.000      7.86511e-04
409.000      3.07458e-04
410.000      1.13991e-04
411.000      4.00668e-05
412.000      1.33466e-05
413.000      4.21217e-06
414.000      1.25917e-06
415.000      3.56465e-07
416.000      9.55505e-08
417.000      2.42478e-08
418.000      5.82485e-09
419.000      1.32443e-09
420.000      2.85016e-10
421.000      5.80469e-11
422.000      1.11875e-11
423.000      2.04037e-12
424.000      3.52122e-13
425.000      5.75004e-14
426.000      8.88444e-15
427.000      1.29885e-15
428.000      1.79661e-16
429.000      2.35127e-17
430.000      2.91141e-18
431.000      3.41073e-19
432.000      3.78037e-20
433.000      3.96422e-21
434.000      3.93292e-22
435.000      3.69152e-23
436.000      3.27812e-24
437.000      2.75406e-25
438.000      2.18901e-26
439.000      1.64606e-27
440.000      1.17104e-28
441.000      7.88164e-30
442.000      5.01863e-31
443.000      3.02326e-32
444.000      1.72301e-33
445.000      9.29007e-35
446.000      4.73883e-36
447.000      2.28688e-37
448.000      1.04408e-38
449.000      4.50966e-40
450.000      1.84278e-41
451.000      7.12395e-43
452.000      2.60548e-44
453.000      9.01513e-46
454.000      2.95104e-47
455.000      9.13895e-49
456.000      2.67754e-50
457.000      7.42153e-52
458.000      1.94612e-53
459.000      4.82794e-55
460.000      1.13311e-56
461.000      2.51595e-58
462.000      5.28505e-60
463.000      1.05030e-61
464.000      1.97468e-63
465.000      3.51234e-65
466.000      5.91037e-67
467.000      9.40914e-69
468.000      1.41711e-70
469.000      2.01918e-72
470.000      2.72184e-74
471.000      3.47111e-76
472.000      4.18786e-78
473.000      4.78007e-80
474.000      5.16170e-82
475.000      5.27315e-84
476.000      5.09641e-86
477.000      4.65990e-88
478.000      4.03094e-90
479.000      3.29878e-92
480.000      2.55398e-94
481.000      1.87068e-96
482.000      1.29628e-98
483.000     8.49803e-101
484.000     5.27052e-103
485.000     3.09247e-105
486.000     1.71663e-107
487.000     9.01498e-110
488.000     4.47889e-112
489.000     2.10520e-114
490.000     9.36127e-117
491.000     3.93816e-119
492.000     1.56736e-121
493.000     5.90151e-124
494.000     2.10220e-126
495.000     7.08440e-129
496.000     2.25865e-131
497.000     6.81261e-134
498.000     1.94400e-136
499.000     5.24801e-139
500.000     1.34033e-141
