# Gaussian folded, width=10 cm^-1
# [cm^-1] arbitrary
0.000      3.00000e+00
1.000      2.91796e+00
2.000      2.68508e+00
3.000      2.33749e+00
4.000      1.92514e+00
5.000      1.50000e+00
6.000      1.10570e+00
7.000      7.71085e-01
8.000      5.08727e-01
9.000      3.17530e-01
10.000      1.87500e-01
11.000      1.04746e-01
12.000      5.53596e-02
13.000      2.76815e-02
14.000      1.31001e-02
15.000      5.88169e-03
16.000      2.54956e-03
17.000      1.19501e-03
18.000      9.34845e-04
19.000      1.60210e-03
20.000      3.70013e-03
21.000      8.64361e-03
22.000      1.93212e-02
23.000      4.09999e-02
24.000      8.25071e-02
25.000      1.57440e-01
26.000      2.84885e-01
27.000      4.88842e-01
28.000      7.95477e-01
29.000      1.22760e+00
30.000      1.79667e+00
31.000      2.49380e+00
32.000      3.28279e+00
33.000      4.09833e+00
34.000      4.85233e+00
35.000      5.44833e+00
36.000      5.80143e+00
37.000      5.85802e+00
38.000      5.60910e+00
39.000      5.09264e+00
40.000      4.38414e+00
41.000      3.57855e+00
42.000      2.76973e+00
43.000      2.03339e+00
44.000      1.41785e+00
45.000      9.43352e-01
46.000      6.08314e-01
47.000      3.98989e-01
48.000      2.99289e-01
49.000      2.98320e-01
50.000      3.94362e-01
51.000      5.94919e-01
52.000      9.13038e-01
53.000      1.36050e+00
54.000      1.93908e+00
55.000      2.63203e+00
56.000      3.39819e+00
57.000      4.17180e+00
58.000      4.86942e+00
59.000      5.40363e+00
60.000      5.70064e+00
61.000      5.71685e+00
62.000      5.44939e+00
63.000      4.93704e+00
64.000      4.25129e+00
65.000      3.48058e+00
66.000      2.71256e+00
67.000      2.01983e+00
68.000      1.45231e+00
69.000      1.03693e+00
70.000      7.83066e-01
71.000      6.90074e-01
72.000      7.53923e-01
73.000      9.70361e-01
74.000      1.33393e+00
75.000      1.83361e+00
76.000      2.44715e+00
77.000      3.13677e+00
78.000      3.84878e+00
79.000      4.51841e+00
80.000      5.08006e+00
81.000      5.48076e+00
82.000      5.69355e+00
83.000      5.72710e+00
84.000      5.62800e+00
85.000      5.47462e+00
86.000      5.36314e+00
87.000      5.38882e+00
88.000      5.62709e+00
89.000      6.11878e+00
90.000      6.86317e+00
91.000      7.82020e+00
92.000      8.92055e+00
93.000      1.00808e+01
94.000      1.12187e+01
95.000      1.22655e+01
96.000      1.31712e+01
97.000      1.39040e+01
98.000      1.44452e+01
99.000      1.47819e+01
100.000      1.49029e+01
101.000      1.47979e+01
102.000      1.44612e+01
103.000      1.38980e+01
104.000      1.31300e+01
105.000      1.21989e+01
106.000      1.11645e+01
107.000      1.00982e+01
108.000      9.07377e+00
109.000      8.15705e+00
110.000      7.39841e+00
111.000      6.83024e+00
112.000      6.46929e+00
113.000      6.32233e+00
114.000      6.39176e+00
115.000      6.67811e+00
116.000      7.17796e+00
117.000      7.87866e+00
118.000      8.75284e+00
119.000      9.75638e+00
120.000      1.08317e+01
121.000      1.19159e+01
122.000      1.29506e+01
123.000      1.38907e+01
124.000      1.47079e+01
125.000      1.53900e+01
126.000      1.59362e+01
127.000      1.63507e+01
128.000      1.66380e+01
129.000      1.68006e+01
130.000      1.68393e+01
131.000      1.67547e+01
132.000      1.65495e+01
133.000      1.62294e+01
134.000      1.58034e+01
135.000      1.52835e+01
136.000      1.46841e+01
137.000      1.40224e+01
138.000      1.33187e+01
139.000      1.25968e+01
140.000      1.18839e+01
141.000      1.12089e+01
142.000      1.05998e+01
143.000      1.00795e+01
144.000      9.66171e+00
145.000      9.34764e+00
146.000      9.12457e+00
147.000      8.96821e+00
148.000      8.84837e+00
149.000      8.73712e+00
150.000      8.61683e+00
151.000      8.48537e+00
152.000      8.35629e+00
153.000      8.25378e+00
154.000      8.20421e+00
155.000      8.22715e+00
156.000      8.32893e+00
157.000      8.50009e+00
158.000      8.71690e+00
159.000      8.94576e+00
160.000      9.14895e+00
161.000      9.29098e+00
162.000      9.34421e+00
163.000      9.29337e+00
164.000      9.13746e+00
165.000      8.88852e+00
166.000      8.56708e+00
167.000      8.19564e+00
168.000      7.79251e+00
169.000      7.36836e+00
170.000      6.92681e+00
171.000      6.46881e+00
172.000      5.99876e+00
173.000      5.52982e+00
174.000      5.08617e+00
175.000      4.70113e+00
176.000      4.41189e+00
177.000      4.25225e+00
178.000      4.24563e+00
179.000      4.40009e+00
180.000      4.70650e+00
181.000      5.14011e+00
182.000      5.66501e+00
183.000      6.24025e+00
184.000      6.82625e+00
185.000      7.38997e+00
186.000      7.90801e+00
187.000      8.36724e+00
188.000      8.76364e+00
189.000      9.10023e+00
190.000      9.38524e+00
191.000      9.63114e+00
192.000      9.85432e+00
193.000      1.00748e+01
194.000      1.03150e+01
195.000      1.05968e+01
196.000      1.09369e+01
197.000      1.13419e+01
198.000      1.18035e+01
199.000      1.22966e+01
200.000      1.27808e+01
201.000      1.32059e+01
202.000      1.35205e+01
203.000      1.36827e+01
204.000      1.36689e+01
205.000      1.34800e+01
206.000      1.31414e+01
207.000      1.26988e+01
208.000      1.22082e+01
209.000      1.17262e+01
210.000      1.13009e+01
211.000      1.09664e+01
212.000      1.07413e+01
213.000      1.06303e+01
214.000      1.06266e+01
215.000      1.07139e+01
216.000      1.08682e+01
217.000      1.10595e+01
218.000      1.12558e+01
219.000      1.14289e+01
220.000      1.15619e+01
221.000      1.16549e+01
222.000      1.17281e+01
223.000      1.18181e+01
224.000      1.19699e+01
225.000      1.22245e+01
226.000      1.26070e+01
227.000      1.31179e+01
228.000      1.37291e+01
229.000      1.43868e+01
230.000      1.50194e+01
231.000      1.55496e+01
232.000      1.59075e+01
233.000      1.60448e+01
234.000      1.59435e+01
235.000      1.56210e+01
236.000      1.51262e+01
237.000      1.45294e+01
238.000      1.39061e+01
239.000      1.33208e+01
240.000      1.28141e+01
241.000      1.23973e+01
242.000      1.20565e+01
243.000      1.17620e+01
244.000      1.14818e+01
245.000      1.11918e+01
246.000      1.08824e+01
247.000      1.05582e+01
248.000      1.02340e+01
249.000      9.92946e+00
250.000      9.66359e+00
251.000      9.45161e+00
252.000      9.30310e+00
253.000      9.22136e+00
254.000      9.20309e+00
255.000      9.23865e+00
256.000      9.31283e+00
257.000      9.40678e+00
258.000      9.50077e+00
259.000      9.57724e+00
260.000      9.62314e+00
261.000      9.63074e+00
262.000      9.59644e+00
263.000      9.51826e+00
264.000      9.39301e+00
265.000      9.21425e+00
266.000      8.97209e+00
267.000      8.65482e+00
268.000      8.25199e+00
269.000      7.75809e+00
270.000      7.17581e+00
271.000      6.51834e+00
272.000      5.81000e+00
273.000      5.08499e+00
274.000      4.38430e+00
275.000      3.75100e+00
276.000      3.22476e+00
277.000      2.83681e+00
278.000      2.60633e+00
279.000      2.53906e+00
280.000      2.62775e+00
281.000      2.85405e+00
282.000      3.19074e+00
283.000      3.60417e+00
284.000      4.05696e+00
285.000      4.51142e+00
286.000      4.93375e+00
287.000      5.29808e+00
288.000      5.58899e+00
289.000      5.80119e+00
290.000      5.93610e+00
291.000      5.99652e+00
292.000      5.98172e+00
293.000      5.88529e+00
294.000      5.69703e+00
295.000      5.40854e+00
296.000      5.02035e+00
297.000      4.54769e+00
298.000      4.02240e+00
299.000      3.48966e+00
300.000      3.00012e+00
301.000      2.59951e+00
302.000      2.31893e+00
303.000      2.16867e+00
304.000      2.13774e+00
305.000      2.19940e+00
306.000      2.32136e+00
307.000      2.47759e+00
308.000      2.65809e+00
309.000      2.87324e+00
310.000      3.15100e+00
311.000      3.52748e+00
312.000      4.03378e+00
313.000      4.68315e+00
314.000      5.46283e+00
315.000      6.33316e+00
316.000      7.23462e+00
317.000      8.10087e+00
318.000      8.87430e+00
319.000      9.51966e+00
320.000      1.00321e+01
321.000      1.04370e+01
322.000      1.07826e+01
323.000      1.11258e+01
324.000      1.15186e+01
325.000      1.19954e+01
326.000      1.25684e+01
327.000      1.32289e+01
328.000      1.39540e+01
329.000      1.47162e+01
330.000      1.54915e+01
331.000      1.62643e+01
332.000      1.70287e+01
333.000      1.77866e+01
334.000      1.85432e+01
335.000      1.93023e+01
336.000      2.00625e+01
337.000      2.08145e+01
338.000      2.15418e+01
339.000      2.22224e+01
340.000      2.28324e+01
341.000      2.33500e+01
342.000      2.37580e+01
343.000      2.40454e+01
344.000      2.42073e+01
345.000      2.42442e+01
346.000      2.41606e+01
347.000      2.39628e+01
348.000      2.36568e+01
349.000      2.32467e+01
350.000      2.27338e+01
351.000      2.21181e+01
352.000      2.14011e+01
353.000      2.05902e+01
354.000      1.97006e+01
355.000      1.87563e+01
356.000      1.77870e+01
357.000      1.68224e+01
358.000      1.58865e+01
359.000      1.49933e+01
360.000      1.41456e+01
361.000      1.33370e+01
362.000      1.25572e+01
363.000      1.17979e+01
364.000      1.10571e+01
365.000      1.03412e+01
366.000      9.66376e+00
367.000      9.04182e+00
368.000      8.49011e+00
369.000      8.01617e+00
370.000      7.61732e+00
371.000      7.28047e+00
372.000      6.98513e+00
373.000      6.70871e+00
374.000      6.43282e+00
375.000      6.14898e+00
376.000      5.86257e+00
377.000      5.59386e+00
378.000      5.37581e+00
379.000      5.24857e+00
380.000      5.25127e+00
381.000      5.41233e+00
382.000      5.74019e+00
383.000      6.21667e+00
384.000      6.79494e+00
385.000      7.40374e+00
386.000      7.95758e+00
387.000      8.37162e+00
388.000      8.57778e+00
389.000      8.53853e+00
390.000      8.25445e+00
391.000      7.76383e+00
392.000      7.13404e+00
393.000      6.44720e+00
394.000      5.78346e+00
395.000      5.20596e+00
396.000      4.75053e+00
397.000      4.42198e+00
398.000      4.19741e+00
399.000      4.03520e+00
400.000      3.88755e+00
401.000      3.71330e+00
402.000      3.48790e+00
403.000      3.20791e+00
404.000      2.88894e+00
405.000      2.55825e+00
406.000      2.24455e+00
407.000      1.96881e+00
408.000      1.73889e+00
409.000      1.54949e+00
410.000      1.38650e+00
411.000      1.23368e+00
412.000      1.07874e+00
413.000      9.16854e-01
414.000      7.50860e-01
415.000      5.88767e-01
416.000      4.40132e-01
417.000      3.12789e-01
418.000      2.10942e-01
419.000      1.34841e-01
420.000      8.16430e-02
421.000      4.68011e-02
422.000      2.53929e-02
423.000      1.30381e-02
424.000      6.33448e-03
425.000      2.91190e-03
426.000      1.26646e-03
427.000      5.21125e-04
428.000      2.02872e-04
429.000      7.47187e-05
430.000      2.60350e-05
431.000      8.58239e-06
432.000      2.67656e-06
433.000      7.89706e-07
434.000      2.20431e-07
435.000      5.82099e-08
436.000      1.45425e-08
437.000      3.43716e-09
438.000      7.68561e-10
439.000      1.62583e-10
440.000      3.25377e-11
441.000      6.16054e-12
442.000      1.10349e-12
443.000      1.86997e-13
444.000      2.99790e-14
445.000      4.54694e-15
446.000      6.52437e-16
447.000      8.85676e-17
448.000      1.13744e-17
449.000      1.38198e-18
450.000      1.58851e-19
451.000      1.72742e-20
452.000      1.77715e-21
453.000      1.72968e-22
454.000      1.59267e-23
455.000      1.38740e-24
456.000      1.14340e-25
457.000      8.91478e-27
458.000      6.57569e-28
459.000      4.58869e-29
460.000      3.02939e-30
461.000      1.89207e-31
462.000      1.11799e-32
463.000      6.24967e-34
464.000      3.30516e-35
465.000      1.65366e-36
466.000      7.82740e-38
467.000      3.50515e-39
468.000      1.48495e-40
469.000      5.95164e-42
470.000      2.25672e-43
471.000      8.09539e-45
472.000      2.74735e-46
473.000      8.82082e-48
474.000      2.67930e-49
475.000      7.69929e-51
476.000      2.09314e-52
477.000      5.38347e-54
478.000      1.30992e-55
479.000      3.01540e-57
480.000      6.56693e-59
481.000      1.35300e-60
482.000      2.63724e-62
483.000      4.86318e-64
484.000      8.48416e-66
485.000      1.40028e-67
486.000      2.18644e-69
487.000      3.22982e-71
488.000      4.51374e-73
489.000      5.96778e-75
490.000      7.46459e-77
491.000      8.83319e-79
492.000      9.88886e-81
493.000      1.04735e-82
494.000      1.04944e-84
495.000      9.94805e-87
496.000      8.92149e-89
497.000      7.56927e-91
498.000      6.07559e-93
499.000      4.61361e-95
500.000      3.31444e-97
