# Gaussian folded, width=10 cm^-1
# [cm^-1] arbitrary
0.000      3.00000e+00
1.000      2.91796e+00
2.000      2.68508e+00
3.000      2.33749e+00
4.000      1.92514e+00
5.000      1.50000e+00
6.000      1.10570e+00
7.000      7.71085e-01
8.000      5.08727e-01
9.000      3.17530e-01
10.000      1.87503e-01
11.000      1.04756e-01
12.000      5.53911e-02
13.000      2.77778e-02
14.000      1.33781e-02
15.000      6.64137e-03
16.000      4.51403e-03
17.000      6.00129e-03
18.000      1.20583e-02
19.000      2.59483e-02
20.000      5.40786e-02
21.000      1.07159e-01
22.000      2.01282e-01
23.000      3.58224e-01
24.000      6.04034e-01
25.000      9.65020e-01
26.000      1.46081e+00
27.000      2.09534e+00
28.000      2.84792e+00
29.000      3.66802e+00
30.000      4.47693e+00
31.000      5.17828e+00
32.000      5.67624e+00
33.000      5.89682e+00
34.000      5.80595e+00
35.000      5.41815e+00
36.000      4.79303e+00
37.000      4.02072e+00
38.000      3.20163e+00
39.000      2.42708e+00
40.000      1.76632e+00
41.000      1.26255e+00
42.000      9.36796e-01
43.000      7.96000e-01
44.000      8.41094e-01
45.000      1.07120e+00
46.000      1.48231e+00
47.000      2.06108e+00
48.000      2.77646e+00
49.000      3.57337e+00
50.000      4.37244e+00
51.000      5.07817e+00
52.000      5.59500e+00
53.000      5.84705e+00
54.000      5.79583e+00
55.000      5.44958e+00
56.000      4.86126e+00
57.000      4.11578e+00
58.000      3.31090e+00
59.000      2.53810e+00
60.000      1.86872e+00
61.000      1.34836e+00
62.000      9.98870e-01
63.000      8.25203e-01
64.000      8.23259e-01
65.000      9.85545e-01
66.000      1.30301e+00
67.000      1.76317e+00
68.000      2.34618e+00
69.000      3.02106e+00
70.000      3.74479e+00
71.000      4.46562e+00
72.000      5.13125e+00
73.000      5.70012e+00
74.000      6.15294e+00
75.000      6.50041e+00
76.000      6.78388e+00
77.000      7.06773e+00
78.000      7.42502e+00
79.000      7.92064e+00
80.000      8.59720e+00
81.000      9.46732e+00
82.000      1.05135e+01
83.000      1.16931e+01
84.000      1.29456e+01
85.000      1.41975e+01
86.000      1.53671e+01
87.000      1.63673e+01
88.000      1.71128e+01
89.000      1.75302e+01
90.000      1.75704e+01
91.000      1.72205e+01
92.000      1.65093e+01
93.000      1.55043e+01
94.000      1.43011e+01
95.000      1.30074e+01
96.000      1.17272e+01
97.000      1.05494e+01
98.000      9.54238e+00
99.000      8.75471e+00
100.000      8.21944e+00
101.000      7.95847e+00
102.000      7.98464e+00
103.000      8.30057e+00
104.000      8.89498e+00
105.000      9.73861e+00
106.000      1.07824e+01
107.000      1.19594e+01
108.000      1.31920e+01
109.000      1.44012e+01
110.000      1.55181e+01
111.000      1.64918e+01
112.000      1.72937e+01
113.000      1.79155e+01
114.000      1.83639e+01
115.000      1.86510e+01
116.000      1.87874e+01
117.000      1.87764e+01
118.000      1.86143e+01
119.000      1.82941e+01
120.000      1.78141e+01
121.000      1.71865e+01
122.000      1.64443e+01
123.000      1.56420e+01
124.000      1.48499e+01
125.000      1.41403e+01
126.000      1.35721e+01
127.000      1.31762e+01
128.000      1.29487e+01
129.000      1.28535e+01
130.000      1.28349e+01
131.000      1.28337e+01
132.000      1.28036e+01
133.000      1.27197e+01
134.000      1.25785e+01
135.000      1.23901e+01
136.000      1.21669e+01
137.000      1.19131e+01
138.000      1.16201e+01
139.000      1.12680e+01
140.000      1.08323e+01
141.000      1.02934e+01
142.000      9.64448e+00
143.000      8.89650e+00
144.000      8.07816e+00
145.000      7.23107e+00
146.000      6.40146e+00
147.000      5.63059e+00
148.000      4.94637e+00
149.000      4.35875e+00
150.000      3.86016e+00
151.000      3.43114e+00
152.000      3.04922e+00
153.000      2.69839e+00
154.000      2.37614e+00
155.000      2.09598e+00
156.000      1.88520e+00
157.000      1.77874e+00
158.000      1.81127e+00
159.000      2.00968e+00
160.000      2.38719e+00
161.000      2.93996e+00
162.000      3.64590e+00
163.000      4.46586e+00
164.000      5.34727e+00
165.000      6.23114e+00
166.000      7.06264e+00
167.000      7.80442e+00
168.000      8.44943e+00
169.000      9.02826e+00
170.000      9.60588e+00
171.000      1.02655e+01
172.000      1.10826e+01
173.000      1.20961e+01
174.000      1.32885e+01
175.000      1.45826e+01
176.000      1.58577e+01
177.000      1.69802e+01
178.000      1.78393e+01
179.000      1.83751e+01
180.000      1.85908e+01
181.000      1.85479e+01
182.000      1.83448e+01
183.000      1.80881e+01
184.000      1.78635e+01
185.000      1.77140e+01
186.000      1.76323e+01
187.000      1.75706e+01
188.000      1.74658e+01
189.000      1.72744e+01
190.000      1.70055e+01
191.000      1.67390e+01
192.000      1.66207e+01
193.000      1.68311e+01
194.000      1.75369e+01
195.000      1.88381e+01
196.000      2.07297e+01
197.000      2.30888e+01
198.000      2.56944e+01
199.000      2.82712e+01
200.000      3.05464e+01
201.000      3.23005e+01
202.000      3.34014e+01
203.000      3.38129e+01
204.000      3.35825e+01
205.000      3.28146e+01
206.000      3.16392e+01
207.000      3.01857e+01
208.000      2.85636e+01
209.000      2.68538e+01
210.000      2.51076e+01
211.000      2.33534e+01
212.000      2.16073e+01
213.000      1.98854e+01
214.000      1.82120e+01
215.000      1.66208e+01
216.000      1.51490e+01
217.000      1.38250e+01
218.000      1.26574e+01
219.000      1.16286e+01
220.000      1.06991e+01
221.000      9.82006e+00
222.000      8.95087e+00
223.000      8.07597e+00
224.000      7.21510e+00
225.000      6.42414e+00
226.000      5.78633e+00
227.000      5.39633e+00
228.000      5.34092e+00
229.000      5.68087e+00
230.000      6.43738e+00
231.000      7.58603e+00
232.000      9.05907e+00
233.000      1.07559e+01
234.000      1.25595e+01
235.000      1.43564e+01
236.000      1.60556e+01
237.000      1.76020e+01
238.000      1.89822e+01
239.000      2.02196e+01
240.000      2.13603e+01
241.000      2.24523e+01
242.000      2.35238e+01
243.000      2.45662e+01
244.000      2.55264e+01
245.000      2.63123e+01
246.000      2.68089e+01
247.000      2.69036e+01
248.000      2.65124e+01
249.000      2.56008e+01
250.000      2.41945e+01
251.000      2.23757e+01
252.000      2.02679e+01
253.000      1.80132e+01
254.000      1.57489e+01
255.000      1.35885e+01
256.000      1.16111e+01
257.000      9.86019e+00
258.000      8.34917e+00
259.000      7.07115e+00
260.000      6.00943e+00
261.000      5.14675e+00
262.000      4.47219e+00
263.000      3.98584e+00
264.000      3.70134e+00
265.000      3.64637e+00
266.000      3.86034e+00
267.000      4.38849e+00
268.000      5.27183e+00
269.000      6.53413e+00
270.000      8.16860e+00
271.000      1.01284e+01
272.000      1.23247e+01
273.000      1.46355e+01
274.000      1.69220e+01
275.000      1.90508e+01
276.000      2.09132e+01
277.000      2.24365e+01
278.000      2.35838e+01
279.000      2.43438e+01
280.000      2.47165e+01
281.000      2.47018e+01
282.000      2.42969e+01
283.000      2.35030e+01
284.000      2.23388e+01
285.000      2.08516e+01
286.000      1.91214e+01
287.000      1.72537e+01
288.000      1.53626e+01
289.000      1.35517e+01
290.000      1.18979e+01
291.000      1.04443e+01
292.000      9.20311e+00
293.000      8.16550e+00
294.000      7.31286e+00
295.000      6.62539e+00
296.000      6.08513e+00
297.000      5.67434e+00
298.000      5.37210e+00
299.000      5.15205e+00
300.000      4.98350e+00
301.000      4.83550e+00
302.000      4.68221e+00
303.000      4.50717e+00
304.000      4.30501e+00
305.000      4.08030e+00
306.000      3.84450e+00
307.000      3.61252e+00
308.000      3.39988e+00
309.000      3.22081e+00
310.000      3.08719e+00
311.000      3.00766e+00
312.000      2.98660e+00
313.000      3.02321e+00
314.000      3.11088e+00
315.000      3.23754e+00
316.000      3.38694e+00
317.000      3.54067e+00
318.000      3.68026e+00
319.000      3.78883e+00
320.000      3.85205e+00
321.000      3.85891e+00
322.000      3.80255e+00
323.000      3.68146e+00
324.000      3.50055e+00
325.000      3.27143e+00
326.000      3.01086e+00
327.000      2.73770e+00
328.000      2.46876e+00
329.000      2.21521e+00
330.000      1.98082e+00
331.000      1.76268e+00
332.000      1.55419e+00
333.000      1.34888e+00
334.000      1.14373e+00
335.000      9.40611e-01
336.000      7.45607e-01
337.000      5.66815e-01
338.000      4.11662e-01
339.000      2.84828e-01
340.000      1.87362e-01
341.000      1.17007e-01
342.000      6.92985e-02
343.000      3.88961e-02
344.000      2.06794e-02
345.000      1.04103e-02
346.000      4.96104e-03
347.000      2.23763e-03
348.000      9.55119e-04
349.000      3.85779e-04
350.000      1.47437e-04
351.000      5.33138e-05
352.000      1.82400e-05
353.000      5.90411e-06
354.000      1.80808e-06
355.000      5.23856e-07
356.000      1.43593e-07
357.000      3.72372e-08
358.000      9.13575e-09
359.000      2.12047e-09
360.000      4.65629e-10
361.000      9.67314e-11
362.000      1.90114e-11
363.000      3.53491e-12
364.000      6.21814e-13
365.000      1.03481e-13
366.000      1.62922e-14
367.000      2.42670e-15
368.000      3.41957e-16
369.000      4.55872e-17
370.000      5.74954e-18
371.000      6.86025e-19
372.000      7.74400e-20
373.000      8.27004e-21
374.000      8.35542e-22
375.000      7.98631e-23
376.000      7.22173e-24
377.000      6.17810e-25
378.000      5.00018e-26
379.000      3.82854e-27
380.000      2.77332e-28
381.000      1.90057e-29
382.000      1.23221e-30
383.000      7.55793e-32
384.000      4.38571e-33
385.000      2.40765e-34
386.000      1.25045e-35
387.000      6.14404e-37
388.000      2.85602e-38
389.000      1.25599e-39
390.000      5.22549e-41
391.000      2.05677e-42
392.000      7.65885e-44
393.000      2.69810e-45
394.000      8.99230e-47
395.000      2.83531e-48
396.000      8.45762e-50
397.000      2.38679e-51
398.000      6.37230e-53
399.000      1.60952e-54
400.000      3.84605e-56
401.000      8.69461e-58
402.000      1.85953e-59
403.000      3.76248e-61
404.000      7.20215e-63
405.000      1.30427e-64
406.000      2.23456e-66
407.000      3.62187e-68
408.000      5.55382e-70
409.000      8.05690e-72
410.000      1.10576e-73
411.000      1.43573e-75
412.000      1.76361e-77
413.000      2.04951e-79
414.000      2.25327e-81
415.000      2.34367e-83
416.000      2.30619e-85
417.000      2.14690e-87
418.000      1.89081e-89
419.000      1.57543e-91
420.000      1.24185e-93
421.000      9.26099e-96
422.000      6.53375e-98
423.000     4.36099e-100
424.000     2.75376e-102
425.000     1.64507e-104
426.000     9.29735e-107
427.000     4.97110e-109
428.000     2.51457e-111
429.000     1.20335e-113
430.000     5.44800e-116
431.000     2.33346e-118
432.000     9.45545e-121
433.000     3.62477e-123
434.000     1.31461e-125
435.000     4.51057e-128
436.000     1.46414e-130
437.000     4.49627e-133
438.000     1.30629e-135
439.000     3.59040e-138
440.000     9.33609e-141
441.000     2.29670e-143
442.000     5.34517e-146
443.000     1.17689e-148
444.000     2.45148e-151
445.000     4.83102e-154
446.000     9.00671e-157
447.000     1.58859e-159
448.000     2.65078e-162
449.000     4.18461e-165
450.000     6.24961e-168
451.000     8.83015e-171
452.000     1.18032e-173
453.000     1.49263e-176
454.000     1.78575e-179
455.000     2.02119e-182
456.000     2.16426e-185
457.000     2.19246e-188
458.000     2.10121e-191
459.000     1.90514e-194
460.000     1.63418e-197
461.000     1.32615e-200
462.000     1.01813e-203
463.000     7.39483e-207
464.000     5.08127e-210
465.000     3.30320e-213
466.000     2.03149e-216
467.000     1.18198e-219
468.000     6.50618e-223
469.000     3.38812e-226
470.000     1.66920e-229
471.000     7.77993e-233
472.000     3.43053e-236
473.000     1.43108e-239
474.000     5.64786e-243
475.000     2.10874e-246
476.000     7.44865e-250
477.000     2.48915e-253
478.000     7.86940e-257
479.000     2.35369e-260
480.000     6.66003e-264
481.000     1.78287e-267
482.000     4.51524e-271
483.000     1.08183e-274
484.000     2.45220e-278
485.000     5.25860e-282
486.000     1.06685e-285
487.000     2.04763e-289
488.000     3.71807e-293
489.000     6.38707e-297
490.000     1.03802e-300
491.000     1.59596e-304
492.000     2.32146e-308
493.000     3.19459e-312
494.000     4.15899e-316
495.000     5.12247e-320
496.000     4.94066e-324
497.000      0.00000e+00
498.000      0.00000e+00
499.000      0.00000e+00
500.000      0.00000e+00
