# Gaussian folded, width=10 cm^-1
# [cm^-1] arbitrary
0.000      3.00000e+00
1.000      2.91796e+00
2.000      2.68508e+00
3.000      2.33749e+00
4.000      1.92514e+00
5.000      1.50000e+00
6.000      1.10570e+00
7.000      7.71085e-01
8.000      5.08727e-01
9.000      3.17529e-01
10.000      1.87500e-01
11.000      1.04746e-01
12.000      5.53591e-02
13.000      2.76797e-02
14.000      1.30939e-02
15.000      5.86171e-03
16.000      2.48866e-03
17.000      1.01930e-03
18.000      4.55027e-04
19.000      3.62274e-04
20.000      6.69132e-04
21.000      1.63438e-03
22.000      3.99232e-03
23.000      9.30625e-03
24.000      2.05791e-02
25.000      4.31443e-02
26.000      8.57624e-02
27.000      1.61668e-01
28.000      2.89065e-01
29.000      4.90351e-01
30.000      7.89337e-01
31.000      1.20607e+00
32.000      1.74968e+00
33.000      2.41071e+00
34.000      3.15546e+00
35.000      3.92502e+00
36.000      4.64109e+00
37.000      5.21829e+00
38.000      5.58079e+00
39.000      5.67860e+00
40.000      5.49887e+00
41.000      5.06857e+00
42.000      4.44786e+00
43.000      3.71643e+00
44.000      2.95696e+00
45.000      2.24046e+00
46.000      1.61687e+00
47.000      1.11211e+00
48.000      7.30917e-01
49.000      4.63345e-01
50.000      2.92400e-01
51.000      2.01001e-01
52.000      1.77051e-01
53.000      2.16282e-01
54.000      3.22853e-01
55.000      5.07859e-01
56.000      7.85864e-01
57.000      1.16974e+00
58.000      1.66442e+00
59.000      2.26075e+00
60.000      2.93117e+00
61.000      3.62875e+00
62.000      4.29106e+00
63.000      4.84867e+00
64.000      5.23679e+00
65.000      5.40755e+00
66.000      5.33954e+00
67.000      5.04220e+00
68.000      4.55373e+00
69.000      3.93334e+00
70.000      3.24999e+00
71.000      2.57077e+00
72.000      1.95174e+00
73.000      1.43320e+00
74.000      1.03952e+00
75.000      7.82850e-01
76.000      6.68411e-01
77.000      6.99340e-01
78.000      8.79004e-01
79.000      1.20978e+00
80.000      1.68842e+00
81.000      2.29955e+00
82.000      3.00963e+00
83.000      3.76457e+00
84.000      4.49304e+00
85.000      5.11653e+00
86.000      5.56453e+00
87.000      5.79129e+00
88.000      5.78926e+00
89.000      5.59483e+00
90.000      5.28383e+00
91.000      4.95729e+00
92.000      4.72101e+00
93.000      4.66424e+00
94.000      4.84307e+00
95.000      5.27217e+00
96.000      5.92648e+00
97.000      6.75091e+00
98.000      7.67471e+00
99.000      8.62593e+00
100.000      9.54243e+00
101.000      1.03775e+01
102.000      1.11002e+01
103.000      1.16923e+01
104.000      1.21439e+01
105.000      1.24497e+01
106.000      1.26080e+01
107.000      1.26201e+01
108.000      1.24917e+01
109.000      1.22338e+01
110.000      1.18618e+01
111.000      1.13950e+01
112.000      1.08542e+01
113.000      1.02604e+01
114.000      9.63551e+00
115.000      9.00313e+00
116.000      8.39155e+00
117.000      7.83536e+00
118.000      7.37557e+00
119.000      7.05666e+00
120.000      6.92088e+00
121.000      7.00055e+00
122.000      7.31030e+00
123.000      7.84120e+00
124.000      8.55879e+00
125.000      9.40570e+00
126.000      1.03090e+01
127.000      1.11904e+01
128.000      1.19778e+01
129.000      1.26150e+01
130.000      1.30683e+01
131.000      1.33287e+01
132.000      1.34088e+01
133.000      1.33368e+01
134.000      1.31477e+01
135.000      1.28755e+01
136.000      1.25481e+01
137.000      1.21857e+01
138.000      1.18039e+01
139.000      1.14185e+01
140.000      1.10490e+01
141.000      1.07203e+01
142.000      1.04588e+01
143.000      1.02858e+01
144.000      1.02098e+01
145.000      1.02211e+01
146.000      1.02911e+01
147.000      1.03768e+01
148.000      1.04306e+01
149.000      1.04108e+01
150.000      1.02916e+01
151.000      1.00688e+01
152.000      9.75929e+00
153.000      9.39647e+00
154.000      9.02161e+00
155.000      8.67499e+00
156.000      8.38840e+00
157.000      8.18063e+00
158.000      8.05598e+00
159.000      8.00546e+00
160.000      8.00968e+00
161.000      8.04305e+00
162.000      8.07866e+00
163.000      8.09350e+00
164.000      8.07290e+00
165.000      8.01313e+00
166.000      7.92115e+00
167.000      7.81119e+00
168.000      7.69927e+00
169.000      7.59751e+00
170.000      7.51032e+00
171.000      7.43401e+00
172.000      7.35963e+00
173.000      7.27788e+00
174.000      7.18382e+00
175.000      7.07959e+00
176.000      6.97409e+00
177.000      6.87990e+00
178.000      6.80883e+00
179.000      6.76789e+00
180.000      6.75718e+00
181.000      6.77044e+00
182.000      6.79789e+00
183.000      6.83018e+00
184.000      6.86196e+00
185.000      6.89370e+00
186.000      6.93100e+00
187.000      6.98164e+00
188.000      7.05139e+00
189.000      7.13989e+00
190.000      7.23832e+00
191.000      7.32990e+00
192.000      7.39365e+00
193.000      7.41058e+00
194.000      7.37065e+00
195.000      7.27809e+00
196.000      7.15295e+00
197.000      7.02779e+00
198.000      6.93999e+00
199.000      6.92194e+00
200.000      6.99209e+00
201.000      7.14961e+00
202.000      7.37430e+00
203.000      7.63163e+00
204.000      7.88108e+00
205.000      8.08553e+00
206.000      8.21920e+00
207.000      8.27239e+00
208.000      8.25245e+00
209.000      8.18102e+00
210.000      8.08840e+00
211.000      8.00642e+00
212.000      7.96127e+00
213.000      7.96805e+00
214.000      8.02797e+00
215.000      8.12900e+00
216.000      8.24940e+00
217.000      8.36317e+00
218.000      8.44591e+00
219.000      8.48012e+00
220.000      8.45895e+00
221.000      8.38831e+00
222.000      8.28678e+00
223.000      8.18325e+00
224.000      8.11172e+00
225.000      8.10384e+00
226.000      8.18024e+00
227.000      8.34300e+00
228.000      8.57190e+00
229.000      8.82653e+00
230.000      9.05459e+00
231.000      9.20459e+00
232.000      9.23927e+00
233.000      9.14535e+00
234.000      8.93618e+00
235.000      8.64624e+00
236.000      8.31949e+00
237.000      7.99581e+00
238.000      7.70068e+00
239.000      7.44168e+00
240.000      7.21260e+00
241.000      7.00274e+00
242.000      6.80686e+00
243.000      6.63132e+00
244.000      6.49372e+00
245.000      6.41635e+00
246.000      6.41650e+00
247.000      6.49754e+00
248.000      6.64448e+00
249.000      6.82537e+00
250.000      6.99777e+00
251.000      7.11772e+00
252.000      7.14842e+00
253.000      7.06632e+00
254.000      6.86401e+00
255.000      6.55018e+00
256.000      6.14767e+00
257.000      5.69026e+00
258.000      5.21852e+00
259.000      4.77482e+00
260.000      4.39747e+00
261.000      4.11488e+00
262.000      3.94072e+00
263.000      3.87173e+00
264.000      3.88875e+00
265.000      3.96128e+00
266.000      4.05415e+00
267.000      4.13453e+00
268.000      4.17730e+00
269.000      4.16729e+00
270.000      4.09834e+00
271.000      3.97033e+00
272.000      3.78594e+00
273.000      3.54898e+00
274.000      3.26511e+00
275.000      2.94432e+00
276.000      2.60370e+00
277.000      2.26867e+00
278.000      1.97145e+00
279.000      1.74665e+00
280.000      1.62522e+00
281.000      1.62811e+00
282.000      1.76180e+00
283.000      2.01653e+00
284.000      2.36806e+00
285.000      2.78227e+00
286.000      3.22178e+00
287.000      3.65264e+00
288.000      4.04985e+00
289.000      4.40021e+00
290.000      4.70239e+00
291.000      4.96474e+00
292.000      5.20181e+00
293.000      5.43088e+00
294.000      5.66913e+00
295.000      5.93155e+00
296.000      6.22918e+00
297.000      6.56709e+00
298.000      6.94218e+00
299.000      7.34117e+00
300.000      7.74004e+00
301.000      8.10613e+00
302.000      8.40356e+00
303.000      8.60130e+00
304.000      8.68201e+00
305.000      8.64890e+00
306.000      8.52807e+00
307.000      8.36517e+00
308.000      8.21706e+00
309.000      8.14079e+00
310.000      8.18308e+00
311.000      8.37281e+00
312.000      8.71801e+00
313.000      9.20702e+00
314.000      9.81277e+00
315.000      1.04987e+01
316.000      1.12254e+01
317.000      1.19562e+01
318.000      1.26633e+01
319.000      1.33306e+01
320.000      1.39558e+01
321.000      1.45494e+01
322.000      1.51312e+01
323.000      1.57249e+01
324.000      1.63529e+01
325.000      1.70314e+01
326.000      1.77668e+01
327.000      1.85545e+01
328.000      1.93792e+01
329.000      2.02161e+01
330.000      2.10342e+01
331.000      2.17991e+01
332.000      2.24786e+01
333.000      2.30476e+01
334.000      2.34937e+01
335.000      2.38208e+01
336.000      2.40496e+01
337.000      2.42131e+01
338.000      2.43498e+01
339.000      2.44942e+01
340.000      2.46683e+01
341.000      2.48785e+01
342.000      2.51156e+01
343.000      2.53606e+01
344.000      2.55924e+01
345.000      2.57943e+01
346.000      2.59582e+01
347.000      2.60843e+01
348.000      2.61784e+01
349.000      2.62464e+01
350.000      2.62895e+01
351.000      2.63003e+01
352.000      2.62622e+01
353.000      2.61496e+01
354.000      2.59310e+01
355.000      2.55734e+01
356.000      2.50461e+01
357.000      2.43252e+01
358.000      2.33975e+01
359.000      2.22629e+01
360.000      2.09360e+01
361.000      1.94473e+01
362.000      1.78419e+01
363.000      1.61769e+01
364.000      1.45168e+01
365.000      1.29268e+01
366.000      1.14653e+01
367.000      1.01764e+01
368.000      9.08586e+00
369.000      8.19980e+00
370.000      7.50863e+00
371.000      6.99354e+00
372.000      6.63416e+00
373.000      6.41469e+00
374.000      6.32671e+00
375.000      6.36846e+00
376.000      6.54155e+00
377.000      6.84713e+00
378.000      7.28322e+00
379.000      7.84391e+00
380.000      8.51990e+00
381.000      9.29935e+00
382.000      1.01677e+01
383.000      1.11064e+01
384.000      1.20905e+01
385.000      1.30872e+01
386.000      1.40550e+01
387.000      1.49449e+01
388.000      1.57027e+01
389.000      1.62722e+01
390.000      1.65993e+01
391.000      1.66371e+01
392.000      1.63523e+01
393.000      1.57320e+01
394.000      1.47906e+01
395.000      1.35728e+01
396.000      1.21517e+01
397.000      1.06220e+01
398.000      9.08749e+00
399.000      7.64687e+00
400.000      6.38097e+00
401.000      5.34357e+00
402.000      4.55755e+00
403.000      4.01588e+00
404.000      3.68649e+00
405.000      3.51977e+00
406.000      3.45751e+00
407.000      3.44242e+00
408.000      3.42714e+00
409.000      3.38089e+00
410.000      3.29239e+00
411.000      3.16784e+00
412.000      3.02445e+00
413.000      2.88142e+00
414.000      2.75147e+00
415.000      2.63572e+00
416.000      2.52364e+00
417.000      2.39774e+00
418.000      2.24093e+00
419.000      2.04363e+00
420.000      1.80806e+00
421.000      1.54859e+00
422.000      1.28828e+00
423.000      1.05329e+00
424.000      8.66923e-01
425.000      7.44843e-01
426.000      6.92279e-01
427.000      7.03361e-01
428.000      7.62389e-01
429.000      8.46706e-01
430.000      9.30790e-01
431.000      9.90927e-01
432.000      1.00960e+00
433.000      9.78544e-01
434.000      8.99654e-01
435.000      7.83489e-01
436.000      6.45901e-01
437.000      5.03894e-01
438.000      3.71953e-01
439.000      2.59766e-01
440.000      1.71636e-01
441.000      1.07290e-01
442.000      6.34493e-02
443.000      3.54990e-02
444.000      1.87898e-02
445.000      9.40910e-03
446.000      4.45750e-03
447.000      1.99780e-03
448.000      8.47090e-04
449.000      3.39802e-04
450.000      1.28955e-04
451.000      4.62988e-05
452.000      1.57260e-05
453.000      5.05341e-06
454.000      1.53627e-06
455.000      4.41844e-07
456.000      1.20223e-07
457.000      3.09475e-08
458.000      7.53666e-09
459.000      1.73640e-09
460.000      3.78478e-10
461.000      7.80454e-11
462.000      1.52255e-11
463.000      2.81005e-12
464.000      4.90652e-13
465.000      8.10496e-14
466.000      1.26662e-14
467.000      1.87266e-15
468.000      2.61932e-16
469.000      3.46606e-17
470.000      4.33912e-18
471.000      5.13907e-19
472.000      5.75818e-20
473.000      6.10385e-21
474.000      6.12124e-22
475.000      5.80755e-23
476.000      5.21271e-24
477.000      4.42642e-25
478.000      3.55597e-26
479.000      2.70260e-27
480.000      1.94323e-28
481.000      1.32185e-29
482.000      8.50666e-31
483.000      5.17909e-32
484.000      2.98308e-33
485.000      1.62553e-34
486.000      8.37995e-36
487.000      4.08701e-37
488.000      1.88577e-38
489.000      8.23167e-40
490.000      3.39942e-41
491.000      1.32813e-42
492.000      4.90900e-44
493.000      1.71658e-45
494.000      5.67872e-47
495.000      1.77728e-48
496.000      5.26234e-50
497.000      1.47408e-51
498.000      3.90641e-53
499.000      9.79385e-55
500.000      2.32299e-56
