# Gaussian folded, width=10 cm^-1
# [cm^-1] arbitrary
0.000      3.00000e+00
1.000      2.91796e+00
2.000      2.68508e+00
3.000      2.33749e+00
4.000      1.92514e+00
5.000      1.50000e+00
6.000      1.10570e+00
7.000      7.71085e-01
8.000      5.08727e-01
9.000      3.17530e-01
10.000      1.87500e-01
11.000      1.04746e-01
12.000      5.53597e-02
13.000      2.76819e-02
14.000      1.31015e-02
15.000      5.88598e-03
16.000      2.56198e-03
17.000      1.22888e-03
18.000      1.02180e-03
19.000      1.81233e-03
20.000      4.17825e-03
21.000      9.66556e-03
22.000      2.13715e-02
23.000      4.48546e-02
24.000      8.92841e-02
25.000      1.68552e-01
26.000      3.01809e-01
27.000      5.12653e-01
28.000      8.26158e-01
29.000      1.26330e+00
30.000      1.83317e+00
31.000      2.52467e+00
32.000      3.30035e+00
33.000      4.09555e+00
34.000      4.82505e+00
35.000      5.39714e+00
36.000      5.73229e+00
37.000      5.78123e+00
38.000      5.53679e+00
39.000      5.03565e+00
40.000      4.34935e+00
41.000      3.56765e+00
42.000      2.77966e+00
43.000      2.05810e+00
44.000      1.45058e+00
45.000      9.78735e-01
46.000      6.43664e-01
47.000      4.34739e-01
48.000      3.38661e-01
49.000      3.46410e-01
50.000      4.56766e-01
51.000      6.75970e-01
52.000      1.01379e+00
53.000      1.47689e+00
54.000      2.06086e+00
55.000      2.74330e+00
56.000      3.47993e+00
57.000      4.20619e+00
58.000      4.84485e+00
59.000      5.31878e+00
60.000      5.56587e+00
61.000      5.55232e+00
62.000      5.28011e+00
63.000      4.78677e+00
64.000      4.13728e+00
65.000      3.41087e+00
66.000      2.68647e+00
67.000      2.03095e+00
68.000      1.49264e+00
69.000      1.10059e+00
70.000      8.68367e-01
71.000      7.99504e-01
72.000      8.92035e-01
73.000      1.14020e+00
74.000      1.53291e+00
75.000      2.05017e+00
76.000      2.65960e+00
77.000      3.31558e+00
78.000      3.96264e+00
79.000      4.54335e+00
80.000      5.00917e+00
81.000      5.33153e+00
82.000      5.50991e+00
83.000      5.57438e+00
84.000      5.58157e+00
85.000      5.60436e+00
86.000      5.71753e+00
87.000      5.98223e+00
88.000      6.43279e+00
89.000      7.06905e+00
90.000      7.85627e+00
91.000      8.73312e+00
92.000      9.62579e+00
93.000      1.04647e+01
94.000      1.11990e+01
95.000      1.18046e+01
96.000      1.22839e+01
97.000      1.26570e+01
98.000      1.29486e+01
99.000      1.31744e+01
100.000      1.33321e+01
101.000      1.34003e+01
102.000      1.33444e+01
103.000      1.31280e+01
104.000      1.27271e+01
105.000      1.21404e+01
106.000      1.13953e+01
107.000      1.05471e+01
108.000      9.67194e+00
109.000      8.85598e+00
110.000      8.18215e+00
111.000      7.71766e+00
112.000      7.50425e+00
113.000      7.55277e+00
114.000      7.84332e+00
115.000      8.33077e+00
116.000      8.95453e+00
117.000      9.65051e+00
118.000      1.03622e+01
119.000      1.10484e+01
120.000      1.16859e+01
121.000      1.22665e+01
122.000      1.27910e+01
123.000      1.32617e+01
124.000      1.36764e+01
125.000      1.40265e+01
126.000      1.42976e+01
127.000      1.44739e+01
128.000      1.45430e+01
129.000      1.44999e+01
130.000      1.43481e+01
131.000      1.40996e+01
132.000      1.37727e+01
133.000      1.33895e+01
134.000      1.29742e+01
135.000      1.25511e+01
136.000      1.21435e+01
137.000      1.17711e+01
138.000      1.14475e+01
139.000      1.11787e+01
140.000      1.09622e+01
141.000      1.07882e+01
142.000      1.06433e+01
143.000      1.05135e+01
144.000      1.03880e+01
145.000      1.02598e+01
146.000      1.01249e+01
147.000      9.97991e+00
148.000      9.82014e+00
149.000      9.63850e+00
150.000      9.42706e+00
151.000      9.18058e+00
152.000      8.90064e+00
153.000      8.59873e+00
154.000      8.29635e+00
155.000      8.02155e+00
156.000      7.80246e+00
157.000      7.65969e+00
158.000      7.60020e+00
159.000      7.61440e+00
160.000      7.67770e+00
161.000      7.75568e+00
162.000      7.81137e+00
163.000      7.81269e+00
164.000      7.73838e+00
165.000      7.58129e+00
166.000      7.34884e+00
167.000      7.06071e+00
168.000      6.74440e+00
169.000      6.42985e+00
170.000      6.14442e+00
171.000      5.90930e+00
172.000      5.73831e+00
173.000      5.63848e+00
174.000      5.61175e+00
175.000      5.65663e+00
176.000      5.76909e+00
177.000      5.94297e+00
178.000      6.17062e+00
179.000      6.44427e+00
180.000      6.75804e+00
181.000      7.10970e+00
182.000      7.50102e+00
183.000      7.93605e+00
184.000      8.41744e+00
185.000      8.94220e+00
186.000      9.49834e+00
187.000      1.00642e+01
188.000      1.06108e+01
189.000      1.11072e+01
190.000      1.15270e+01
191.000      1.18547e+01
192.000      1.20892e+01
193.000      1.22437e+01
194.000      1.23421e+01
195.000      1.24126e+01
196.000      1.24804e+01
197.000      1.25621e+01
198.000      1.26634e+01
199.000      1.27794e+01
200.000      1.28983e+01
201.000      1.30059e+01
202.000      1.30899e+01
203.000      1.31436e+01
204.000      1.31661e+01
205.000      1.31618e+01
206.000      1.31378e+01
207.000      1.31010e+01
208.000      1.30557e+01
209.000      1.30021e+01
210.000      1.29378e+01
211.000      1.28589e+01
212.000      1.27627e+01
213.000      1.26495e+01
214.000      1.25224e+01
215.000      1.23864e+01
216.000      1.22464e+01
217.000      1.21059e+01
218.000      1.19676e+01
219.000      1.18355e+01
220.000      1.17178e+01
221.000      1.16289e+01
222.000      1.15894e+01
223.000      1.16229e+01
224.000      1.17508e+01
225.000      1.19854e+01
226.000      1.23245e+01
227.000      1.27483e+01
228.000      1.32208e+01
229.000      1.36935e+01
230.000      1.41136e+01
231.000      1.44322e+01
232.000      1.46131e+01
233.000      1.46384e+01
234.000      1.45111e+01
235.000      1.42536e+01
236.000      1.39020e+01
237.000      1.34991e+01
238.000      1.30874e+01
239.000      1.27030e+01
240.000      1.23721e+01
241.000      1.21093e+01
242.000      1.19186e+01
243.000      1.17938e+01
244.000      1.17205e+01
245.000      1.16778e+01
246.000      1.16404e+01
247.000      1.15816e+01
248.000      1.14766e+01
249.000      1.13064e+01
250.000      1.10608e+01
251.000      1.07407e+01
252.000      1.03579e+01
253.000      9.93315e+00
254.000      9.49149e+00
255.000      9.05737e+00
256.000      8.65037e+00
257.000      8.28329e+00
258.000      7.96311e+00
259.000      7.69397e+00
260.000      7.48043e+00
261.000      7.32900e+00
262.000      7.24687e+00
263.000      7.23797e+00
264.000      7.29830e+00
265.000      7.41252e+00
266.000      7.55334e+00
267.000      7.68416e+00
268.000      7.76406e+00
269.000      7.75386e+00
270.000      7.62201e+00
271.000      7.34960e+00
272.000      6.93397e+00
273.000      6.39048e+00
274.000      5.75171e+00
275.000      5.06362e+00
276.000      4.37888e+00
277.000      3.74862e+00
278.000      3.21456e+00
279.000      2.80369e+00
280.000      2.52686e+00
281.000      2.38131e+00
282.000      2.35572e+00
283.000      2.43609e+00
284.000      2.61035e+00
285.000      2.87092e+00
286.000      3.21458e+00
287.000      3.64018e+00
288.000      4.14447e+00
289.000      4.71716e+00
290.000      5.33626e+00
291.000      5.96556e+00
292.000      6.55591e+00
293.000      7.05104e+00
294.000      7.39722e+00
295.000      7.55423e+00
296.000      7.50435e+00
297.000      7.25656e+00
298.000      6.84441e+00
299.000      6.31861e+00
300.000      5.73643e+00
301.000      5.15125e+00
302.000      4.60487e+00
303.000      4.12414e+00
304.000      3.72234e+00
305.000      3.40383e+00
306.000      3.17035e+00
307.000      3.02643e+00
308.000      2.98227e+00
309.000      3.05317e+00
310.000      3.25582e+00
311.000      3.60280e+00
312.000      4.09713e+00
313.000      4.72855e+00
314.000      5.47276e+00
315.000      6.29397e+00
316.000      7.15040e+00
317.000      8.00142e+00
318.000      8.81466e+00
319.000      9.57109e+00
320.000      1.02665e+01
321.000      1.09091e+01
322.000      1.15136e+01
323.000      1.20943e+01
324.000      1.26600e+01
325.000      1.32120e+01
326.000      1.37469e+01
327.000      1.42618e+01
328.000      1.47605e+01
329.000      1.52557e+01
330.000      1.57688e+01
331.000      1.63233e+01
332.000      1.69370e+01
333.000      1.76149e+01
334.000      1.83447e+01
335.000      1.90979e+01
336.000      1.98346e+01
337.000      2.05120e+01
338.000      2.10912e+01
339.000      2.15428e+01
340.000      2.18494e+01
341.000      2.20048e+01
342.000      2.20125e+01
343.000      2.18839e+01
344.000      2.16365e+01
345.000      2.12926e+01
346.000      2.08765e+01
347.000      2.04114e+01
348.000      1.99158e+01
349.000      1.94015e+01
350.000      1.88732e+01
351.000      1.83324e+01
352.000      1.77811e+01
353.000      1.72265e+01
354.000      1.66813e+01
355.000      1.61607e+01
356.000      1.56757e+01
357.000      1.52261e+01
358.000      1.47964e+01
359.000      1.43564e+01
360.000      1.38687e+01
361.000      1.32986e+01
362.000      1.26260e+01
363.000      1.18519e+01
364.000      1.10011e+01
365.000      1.01169e+01
366.000      9.25346e+00
367.000      8.46444e+00
368.000      7.79384e+00
369.000      7.26853e+00
370.000      6.89474e+00
371.000      6.65842e+00
372.000      6.52940e+00
373.000      6.46852e+00
374.000      6.43641e+00
375.000      6.40220e+00
376.000      6.35020e+00
377.000      6.28321e+00
378.000      6.22162e+00
379.000      6.19839e+00
380.000      6.25111e+00
381.000      6.41239e+00
382.000      6.70044e+00
383.000      7.11154e+00
384.000      7.61619e+00
385.000      8.16021e+00
386.000      8.67166e+00
387.000      9.07291e+00
388.000      9.29578e+00
389.000      9.29595e+00
390.000      9.06268e+00
391.000      8.62091e+00
392.000      8.02478e+00
393.000      7.34463e+00
394.000      6.65137e+00
395.000      6.00262e+00
396.000      5.43415e+00
397.000      4.95811e+00
398.000      4.56705e+00
399.000      4.24137e+00
400.000      3.95736e+00
401.000      3.69342e+00
402.000      3.43354e+00
403.000      3.16826e+00
404.000      2.89409e+00
405.000      2.61261e+00
406.000      2.32978e+00
407.000      2.05538e+00
408.000      1.80201e+00
409.000      1.58312e+00
410.000      1.40990e+00
411.000      1.28785e+00
412.000      1.21417e+00
413.000      1.17722e+00
414.000      1.15858e+00
415.000      1.13738e+00
416.000      1.09553e+00
417.000      1.02211e+00
418.000      9.15490e-01
419.000      7.82704e-01
420.000      6.36475e-01
421.000      4.91210e-01
422.000      3.59329e-01
423.000      2.48957e-01
424.000      1.63292e-01
425.000      1.01366e-01
426.000      5.95448e-02
427.000      3.30958e-02
428.000      1.74042e-02
429.000      8.65917e-03
430.000      4.07594e-03
431.000      1.81512e-03
432.000      7.64724e-04
433.000      3.04807e-04
434.000      1.14938e-04
435.000      4.10035e-05
436.000      1.38388e-05
437.000      4.41866e-06
438.000      1.33476e-06
439.000      3.81445e-07
440.000      1.03128e-07
441.000      2.63781e-08
442.000      6.38301e-09
443.000      1.46125e-09
444.000      3.16477e-10
445.000      6.48452e-11
446.000      1.25699e-11
447.000      2.30516e-12
448.000      3.99934e-13
449.000      6.56438e-14
450.000      1.01934e-14
451.000      1.49747e-15
452.000      2.08121e-16
453.000      2.73648e-17
454.000      3.40397e-18
455.000      4.00587e-19
456.000      4.45990e-20
457.000      4.69755e-21
458.000      4.68096e-22
459.000      4.41282e-23
460.000      3.93564e-24
461.000      3.32072e-25
462.000      2.65074e-26
463.000      2.00179e-27
464.000      1.43017e-28
465.000      9.66663e-30
466.000      6.18130e-31
467.000      3.73940e-32
468.000      2.14014e-33
469.000      1.15878e-34
470.000      5.93573e-36
471.000      2.87652e-37
472.000      1.31879e-38
473.000      5.72012e-40
474.000      2.34720e-41
475.000      9.11200e-43
476.000      3.34653e-44
477.000      1.16277e-45
478.000      3.82216e-47
479.000      1.18862e-48
480.000      3.49698e-50
481.000      9.73333e-52
482.000      2.56300e-53
483.000      6.38486e-55
484.000      1.50478e-56
485.000      3.35515e-58
486.000      7.07732e-60
487.000      1.41235e-61
488.000      2.66646e-63
489.000      4.76260e-65
490.000      8.04769e-67
491.000      1.28652e-68
492.000      1.94571e-70
493.000      2.78393e-72
494.000      3.76839e-74
495.000      4.82582e-76
496.000      5.84660e-78
497.000      6.70122e-80
498.000      7.26644e-82
499.000      7.45430e-84
500.000      7.23453e-86
