# Gaussian folded, width=10 cm^-1
# [cm^-1] arbitrary
0.000      3.00000e+00
1.000      2.91796e+00
2.000      2.68508e+00
3.000      2.33749e+00
4.000      1.92514e+00
5.000      1.50000e+00
6.000      1.10570e+00
7.000      7.71085e-01
8.000      5.08727e-01
9.000      3.17529e-01
10.000      1.87500e-01
11.000      1.04746e-01
12.000      5.53590e-02
13.000      2.76795e-02
14.000      1.30932e-02
15.000      5.85947e-03
16.000      2.48108e-03
17.000      9.94990e-04
18.000      3.81274e-04
19.000      1.50548e-04
20.000      9.39954e-05
21.000      1.56186e-04
22.000      3.98072e-04
23.000      1.03939e-03
24.000      2.59656e-03
25.000      6.15806e-03
26.000      1.38554e-02
27.000      2.95784e-02
28.000      5.99240e-02
29.000      1.15239e-01
30.000      2.10416e-01
31.000      3.64888e-01
32.000      6.01116e-01
33.000      9.41032e-01
34.000      1.40031e+00
35.000      1.98131e+00
36.000      2.66634e+00
37.000      3.41380e+00
38.000      4.15949e+00
39.000      4.82422e+00
40.000      5.32713e+00
41.000      5.60162e+00
42.000      5.60974e+00
43.000      5.35072e+00
44.000      4.86103e+00
45.000      4.20603e+00
46.000      3.46578e+00
47.000      2.71922e+00
48.000      2.03103e+00
49.000      1.44383e+00
50.000      9.76661e-01
51.000      6.28611e-01
52.000      3.85276e-01
53.000      2.25841e-01
54.000      1.29012e-01
55.000      7.70792e-02
56.000      5.81227e-02
57.000      6.69022e-02
58.000      1.04956e-01
59.000      1.80234e-01
60.000      3.06216e-01
61.000      5.00200e-01
62.000      7.80381e-01
63.000      1.16157e+00
64.000      1.64994e+00
65.000      2.23770e+00
66.000      2.89929e+00
67.000      3.59047e+00
68.000      4.25169e+00
69.000      4.81552e+00
70.000      5.21746e+00
71.000      5.40763e+00
72.000      5.36071e+00
73.000      5.08141e+00
74.000      4.60406e+00
75.000      3.98615e+00
76.000      3.29763e+00
77.000      2.60885e+00
78.000      1.98017e+00
79.000      1.45565e+00
80.000      1.06152e+00
81.000      8.08764e-01
82.000      6.97773e-01
83.000      7.23006e-01
84.000      8.75893e-01
85.000      1.14542e+00
86.000      1.51687e+00
87.000      1.96982e+00
88.000      2.47688e+00
89.000      3.00403e+00
90.000      3.51284e+00
91.000      3.96428e+00
92.000      4.32323e+00
93.000      4.56291e+00
94.000      4.66843e+00
95.000      4.63928e+00
96.000      4.49033e+00
97.000      4.25158e+00
98.000      3.96647e+00
99.000      3.68885e+00
100.000      3.47828e+00
101.000      3.39393e+00
102.000      3.48714e+00
103.000      3.79348e+00
104.000      4.32581e+00
105.000      5.06997e+00
106.000      5.98488e+00
107.000      7.00792e+00
108.000      8.06484e+00
109.000      9.08228e+00
110.000      9.99930e+00
111.000      1.07748e+01
112.000      1.13890e+01
113.000      1.18388e+01
114.000      1.21301e+01
115.000      1.22711e+01
116.000      1.22677e+01
117.000      1.21245e+01
118.000      1.18485e+01
119.000      1.14531e+01
120.000      1.09609e+01
121.000      1.04023e+01
122.000      9.81309e+00
123.000      9.22930e+00
124.000      8.68358e+00
125.000      8.20239e+00
126.000      7.80483e+00
127.000      7.50243e+00
128.000      7.29927e+00
129.000      7.19211e+00
130.000      7.17054e+00
131.000      7.21757e+00
132.000      7.31156e+00
133.000      7.42977e+00
134.000      7.55342e+00
135.000      7.67277e+00
136.000      7.79067e+00
137.000      7.92246e+00
138.000      8.09178e+00
139.000      8.32280e+00
140.000      8.63111e+00
141.000      9.01614e+00
142.000      9.45754e+00
143.000      9.91713e+00
144.000      1.03460e+01
145.000      1.06952e+01
146.000      1.09271e+01
147.000      1.10241e+01
148.000      1.09924e+01
149.000      1.08602e+01
150.000      1.06707e+01
151.000      1.04727e+01
152.000      1.03117e+01
153.000      1.02226e+01
154.000      1.02254e+01
155.000      1.03241e+01
156.000      1.05066e+01
157.000      1.07473e+01
158.000      1.10104e+01
159.000      1.12549e+01
160.000      1.14411e+01
161.000      1.15366e+01
162.000      1.15215e+01
163.000      1.13907e+01
164.000      1.11540e+01
165.000      1.08319e+01
166.000      1.04502e+01
167.000      1.00336e+01
168.000      9.60109e+00
169.000      9.16336e+00
170.000      8.72319e+00
171.000      8.27807e+00
172.000      7.82397e+00
173.000      7.35895e+00
174.000      6.88587e+00
175.000      6.41382e+00
176.000      5.95829e+00
177.000      5.54031e+00
178.000      5.18457e+00
179.000      4.91678e+00
180.000      4.76019e+00
181.000      4.73191e+00
182.000      4.83926e+00
183.000      5.07703e+00
184.000      5.42608e+00
185.000      5.85356e+00
186.000      6.31512e+00
187.000      6.75903e+00
188.000      7.13216e+00
189.000      7.38722e+00
190.000      7.49010e+00
191.000      7.42573e+00
192.000      7.20092e+00
193.000      6.84312e+00
194.000      6.39550e+00
195.000      5.90939e+00
196.000      5.43613e+00
197.000      5.02010e+00
198.000      4.69388e+00
199.000      4.47589e+00
200.000      4.36998e+00
201.000      4.36663e+00
202.000      4.44517e+00
203.000      4.57686e+00
204.000      4.72874e+00
205.000      4.86775e+00
206.000      4.96496e+00
207.000      4.99911e+00
208.000      4.95916e+00
209.000      4.84551e+00
210.000      4.66956e+00
211.000      4.45167e+00
212.000      4.21741e+00
213.000      3.99251e+00
214.000      3.79732e+00
215.000      3.64194e+00
216.000      3.52337e+00
217.000      3.42582e+00
218.000      3.32448e+00
219.000      3.19193e+00
220.000      3.00563e+00
221.000      2.75415e+00
222.000      2.44035e+00
223.000      2.08061e+00
224.000      1.70057e+00
225.000      1.32880e+00
226.000      9.90574e-01
227.000      7.03397e-01
228.000      4.75205e-01
229.000      3.05159e-01
230.000      1.86133e-01
231.000      1.07774e-01
232.000      5.92113e-02
233.000      3.08548e-02
234.000      1.52453e-02
235.000      7.14051e-03
236.000      3.16964e-03
237.000      1.33321e-03
238.000      5.31284e-04
239.000      2.00558e-04
240.000      7.17108e-05
241.000      2.42840e-05
242.000      7.78769e-06
243.000      2.36492e-06
244.000      6.80007e-07
245.000      1.85128e-07
246.000      4.77172e-08
247.000      1.16454e-08
248.000      2.69948e-09
249.000      6.40233e-10
250.000      3.83381e-10
251.000      1.26752e-09
252.000      5.59798e-09
253.000      2.38048e-08
254.000      9.58506e-08
255.000      3.65191e-07
256.000      1.31653e-06
257.000      4.49085e-06
258.000      1.44949e-05
259.000      4.42690e-05
260.000      1.27934e-04
261.000      3.49852e-04
262.000      9.05336e-04
263.000      2.21710e-03
264.000      5.13853e-03
265.000      1.12725e-02
266.000      2.34095e-02
267.000      4.60319e-02
268.000      8.57359e-02
269.000      1.51327e-01
270.000      2.53297e-01
271.000      4.02489e-01
272.000      6.08041e-01
273.000      8.75136e-01
274.000      1.20348e+00
275.000      1.58745e+00
276.000      2.01829e+00
277.000      2.48769e+00
278.000      2.99088e+00
279.000      3.52697e+00
280.000      4.09504e+00
281.000      4.68684e+00
282.000      5.27937e+00
283.000      5.83200e+00
284.000      6.29212e+00
285.000      6.60977e+00
286.000      6.75731e+00
287.000      6.74691e+00
288.000      6.63825e+00
289.000      6.53168e+00
290.000      6.54771e+00
291.000      6.79842e+00
292.000      7.35970e+00
293.000      8.25224e+00
294.000      9.43628e+00
295.000      1.08199e+01
296.000      1.22772e+01
297.000      1.36696e+01
298.000      1.48663e+01
299.000      1.57586e+01
300.000      1.62703e+01
301.000      1.63646e+01
302.000      1.60485e+01
303.000      1.53771e+01
304.000      1.44517e+01
305.000      1.34119e+01
306.000      1.24176e+01
307.000      1.16219e+01
308.000      1.11411e+01
309.000      1.10292e+01
310.000      1.12643e+01
311.000      1.17526e+01
312.000      1.23508e+01
313.000      1.29000e+01
314.000      1.32641e+01
315.000      1.33625e+01
316.000      1.31898e+01
317.000      1.28167e+01
318.000      1.23749e+01
319.000      1.20286e+01
320.000      1.19404e+01
321.000      1.22412e+01
322.000      1.30086e+01
323.000      1.42604e+01
324.000      1.59607e+01
325.000      1.80337e+01
326.000      2.03802e+01
327.000      2.28904e+01
328.000      2.54507e+01
329.000      2.79452e+01
330.000      3.02557e+01
331.000      3.22642e+01
332.000      3.38597e+01
333.000      3.49500e+01
334.000      3.54740e+01
335.000      3.54127e+01
336.000      3.47946e+01
337.000      3.36933e+01
338.000      3.22196e+01
339.000      3.05083e+01
340.000      2.87048e+01
341.000      2.69520e+01
342.000      2.53794e+01
343.000      2.40957e+01
344.000      2.31828e+01
345.000      2.26914e+01
346.000      2.26387e+01
347.000      2.30067e+01
348.000      2.37418e+01
349.000      2.47575e+01
350.000      2.59399e+01
351.000      2.71572e+01
352.000      2.82746e+01
353.000      2.91713e+01
354.000      2.97574e+01
355.000      2.99852e+01
356.000      2.98518e+01
357.000      2.93921e+01
358.000      2.86636e+01
359.000      2.77276e+01
360.000      2.66331e+01
361.000      2.54080e+01
362.000      2.40593e+01
363.000      2.25816e+01
364.000      2.09703e+01
365.000      1.92345e+01
366.000      1.74056e+01
367.000      1.55388e+01
368.000      1.37074e+01
369.000      1.19920e+01
370.000      1.04683e+01
371.000      9.19542e+00
372.000      8.20967e+00
373.000      7.52160e+00
374.000      7.11835e+00
375.000      6.96893e+00
376.000      7.03135e+00
377.000      7.26103e+00
378.000      7.61954e+00
379.000      8.08296e+00
380.000      8.64785e+00
381.000      9.33225e+00
382.000      1.01696e+01
383.000      1.11955e+01
384.000      1.24304e+01
385.000      1.38643e+01
386.000      1.54497e+01
387.000      1.71080e+01
388.000      1.87459e+01
389.000      2.02776e+01
390.000      2.16412e+01
391.000      2.28039e+01
392.000      2.37520e+01
393.000      2.44722e+01
394.000      2.49319e+01
395.000      2.50703e+01
396.000      2.48056e+01
397.000      2.40561e+01
398.000      2.27700e+01
399.000      2.09510e+01
400.000      1.86718e+01
401.000      1.60696e+01
402.000      1.33248e+01
403.000      1.06298e+01
404.000      8.15726e+00
405.000      6.03543e+00
406.000      4.33608e+00
407.000      3.07549e+00
408.000      2.22519e+00
409.000      1.72753e+00
410.000      1.51121e+00
411.000      1.50358e+00
412.000      1.63848e+00
413.000      1.85982e+00
414.000      2.12218e+00
415.000      2.38989e+00
416.000      2.63581e+00
417.000      2.84059e+00
418.000      2.99272e+00
419.000      3.08875e+00
420.000      3.13308e+00
421.000      3.13636e+00
422.000      3.11243e+00
423.000      3.07423e+00
424.000      3.02992e+00
425.000      2.98033e+00
426.000      2.91878e+00
427.000      2.83327e+00
428.000      2.71040e+00
429.000      2.53994e+00
430.000      2.31863e+00
431.000      2.05220e+00
432.000      1.75505e+00
433.000      1.44790e+00
434.000      1.15406e+00
435.000      8.95564e-01
436.000      6.90012e-01
437.000      5.48718e-01
438.000      4.76020e-01
439.000      4.69374e-01
440.000      5.19796e-01
441.000      6.12503e-01
442.000      7.28011e-01
443.000      8.44068e-01
444.000      9.38602e-01
445.000      9.93323e-01
446.000      9.97080e-01
447.000      9.47905e-01
448.000      8.52947e-01
449.000      7.26247e-01
450.000      5.85063e-01
451.000      4.45917e-01
452.000      3.21537e-01
453.000      2.19345e-01
454.000      1.41561e-01
455.000      8.64326e-02
456.000      4.99263e-02
457.000      2.72834e-02
458.000      1.41054e-02
459.000      6.89908e-03
460.000      3.19237e-03
461.000      1.39751e-03
462.000      5.78777e-04
463.000      2.26770e-04
464.000      8.40580e-05
465.000      2.94774e-05
466.000      9.77953e-06
467.000      3.06947e-06
468.000      9.11437e-07
469.000      2.56040e-07
470.000      6.80466e-08
471.000      1.71089e-08
472.000      4.06964e-09
473.000      9.15814e-10
474.000      1.94974e-10
475.000      3.92701e-11
476.000      7.48284e-12
477.000      1.34893e-12
478.000      2.30053e-13
479.000      3.71180e-14
480.000      5.66577e-15
481.000      8.18184e-16
482.000      1.11779e-16
483.000      1.44473e-17
484.000      1.76658e-18
485.000      2.04360e-19
486.000      2.23653e-20
487.000      2.31565e-21
488.000      2.26824e-22
489.000      2.10194e-23
490.000      1.84277e-24
491.000      1.52841e-25
492.000      1.19929e-26
493.000      8.90284e-28
494.000      6.25244e-29
495.000      4.15421e-30
496.000      2.61122e-31
497.000      1.55281e-32
498.000      8.73593e-34
499.000      4.64963e-35
500.000      2.34123e-36
