# Gaussian folded, width=10 cm^-1
# [cm^-1] arbitrary
0.000      3.00000e+00
1.000      2.91796e+00
2.000      2.68508e+00
3.000      2.33749e+00
4.000      1.92514e+00
5.000      1.50000e+00
6.000      1.10570e+00
7.000      7.71085e-01
8.000      5.08727e-01
9.000      3.17530e-01
10.000      1.87500e-01
11.000      1.04747e-01
12.000      5.53644e-02
13.000      2.76972e-02
14.000      1.31483e-02
15.000      6.02262e-03
16.000      2.93884e-03
17.000      2.21237e-03
18.000      3.44993e-03
19.000      7.48223e-03
20.000      1.66969e-02
21.000      3.57903e-02
22.000      7.28775e-02
23.000      1.40732e-01
24.000      2.57667e-01
25.000      4.47274e-01
26.000      7.36097e-01
27.000      1.14852e+00
28.000      1.69892e+00
29.000      2.38249e+00
30.000      3.16739e+00
31.000      3.99180e+00
32.000      4.76887e+00
33.000      5.40037e+00
34.000      5.79660e+00
35.000      5.89716e+00
36.000      5.68608e+00
37.000      5.19595e+00
38.000      4.49983e+00
39.000      3.69358e+00
40.000      2.87479e+00
41.000      2.12476e+00
42.000      1.49834e+00
43.000      1.02285e+00
44.000      7.04393e-01
45.000      5.37761e-01
46.000      5.16017e-01
47.000      6.36621e-01
48.000      9.02427e-01
49.000      1.31747e+00
50.000      1.87887e+00
51.000      2.56748e+00
52.000      3.34075e+00
53.000      4.13110e+00
54.000      4.85218e+00
55.000      5.41257e+00
56.000      5.73413e+00
57.000      5.76957e+00
58.000      5.51379e+00
59.000      5.00521e+00
60.000      4.31668e+00
61.000      3.53907e+00
62.000      2.76300e+00
63.000      2.06392e+00
64.000      1.49428e+00
65.000      1.08314e+00
66.000      8.41463e-01
67.000      7.69495e-01
68.000      8.62985e-01
69.000      1.11592e+00
70.000      1.51925e+00
71.000      2.05676e+00
72.000      2.70029e+00
73.000      3.40710e+00
74.000      4.12155e+00
75.000      4.78204e+00
76.000      5.33248e+00
77.000      5.73552e+00
78.000      5.98393e+00
79.000      6.10597e+00
80.000      6.16230e+00
81.000      6.23399e+00
82.000      6.40458e+00
83.000      6.74105e+00
84.000      7.27953e+00
85.000      8.01981e+00
86.000      8.92986e+00
87.000      9.95736e+00
88.000      1.10432e+01
89.000      1.21312e+01
90.000      1.31717e+01
91.000      1.41185e+01
92.000      1.49235e+01
93.000      1.55341e+01
94.000      1.58960e+01
95.000      1.59626e+01
96.000      1.57077e+01
97.000      1.51367e+01
98.000      1.42922e+01
99.000      1.32500e+01
100.000      1.21071e+01
101.000      1.09647e+01
102.000      9.91145e+00
103.000      9.01217e+00
104.000      8.30476e+00
105.000      7.80539e+00
106.000      7.51848e+00
107.000      7.44680e+00
108.000      7.59709e+00
109.000      7.97900e+00
110.000      8.59800e+00
111.000      9.44546e+00
112.000      1.04904e+01
113.000      1.16765e+01
114.000      1.29263e+01
115.000      1.41514e+01
116.000      1.52660e+01
117.000      1.62003e+01
118.000      1.69091e+01
119.000      1.73753e+01
120.000      1.76076e+01
121.000      1.76327e+01
122.000      1.74872e+01
123.000      1.72091e+01
124.000      1.68324e+01
125.000      1.63845e+01
126.000      1.58874e+01
127.000      1.53595e+01
128.000      1.48185e+01
129.000      1.42829e+01
130.000      1.37726e+01
131.000      1.33069e+01
132.000      1.29018e+01
133.000      1.25668e+01
134.000      1.23018e+01
135.000      1.20967e+01
136.000      1.19331e+01
137.000      1.17879e+01
138.000      1.16391e+01
139.000      1.14706e+01
140.000      1.12757e+01
141.000      1.10568e+01
142.000      1.08225e+01
143.000      1.05818e+01
144.000      1.03393e+01
145.000      1.00919e+01
146.000      9.82968e+00
147.000      9.53914e+00
148.000      9.20811e+00
149.000      8.83021e+00
150.000      8.40724e+00
151.000      7.94901e+00
152.000      7.47122e+00
153.000      6.99200e+00
154.000      6.52854e+00
155.000      6.09443e+00
156.000      5.69836e+00
157.000      5.34442e+00
158.000      5.03375e+00
159.000      4.76696e+00
160.000      4.54671e+00
161.000      4.37954e+00
162.000      4.27636e+00
163.000      4.25141e+00
164.000      4.31941e+00
165.000      4.49165e+00
166.000      4.77173e+00
167.000      5.15260e+00
168.000      5.61600e+00
169.000      6.13516e+00
170.000      6.68020e+00
171.000      7.22472e+00
172.000      7.75131e+00
173.000      8.25403e+00
174.000      8.73710e+00
175.000      9.21038e+00
176.000      9.68363e+00
177.000      1.01615e+01
178.000      1.06415e+01
179.000      1.11145e+01
180.000      1.15690e+01
181.000      1.19950e+01
182.000      1.23873e+01
183.000      1.27463e+01
184.000      1.30769e+01
185.000      1.33850e+01
186.000      1.36762e+01
187.000      1.39546e+01
188.000      1.42239e+01
189.000      1.44890e+01
190.000      1.47564e+01
191.000      1.50341e+01
192.000      1.53299e+01
193.000      1.56507e+01
194.000      1.60033e+01
195.000      1.63958e+01
196.000      1.68390e+01
197.000      1.73457e+01
198.000      1.79253e+01
199.000      1.85764e+01
200.000      1.92778e+01
201.000      1.99831e+01
202.000      2.06218e+01
203.000      2.11084e+01
204.000      2.13580e+01
205.000      2.13040e+01
206.000      2.09127e+01
207.000      2.01904e+01
208.000      1.91806e+01
209.000      1.79541e+01
210.000      1.65949e+01
211.000      1.51874e+01
212.000      1.38083e+01
213.000      1.25227e+01
214.000      1.13857e+01
215.000      1.04432e+01
216.000      9.73226e+00
217.000      9.27857e+00
218.000      9.09201e+00
219.000      9.16337e+00
220.000      9.46387e+00
221.000      9.94881e+00
222.000      1.05647e+01
223.000      1.12579e+01
224.000      1.19815e+01
225.000      1.26997e+01
226.000      1.33883e+01
227.000      1.40327e+01
228.000      1.46247e+01
229.000      1.51599e+01
230.000      1.56363e+01
231.000      1.60541e+01
232.000      1.64158e+01
233.000      1.67270e+01
234.000      1.69963e+01
235.000      1.72352e+01
236.000      1.74579e+01
237.000      1.76800e+01
238.000      1.79164e+01
239.000      1.81781e+01
240.000      1.84691e+01
241.000      1.87835e+01
242.000      1.91035e+01
243.000      1.94007e+01
244.000      1.96397e+01
245.000      1.97828e+01
246.000      1.97963e+01
247.000      1.96557e+01
248.000      1.93491e+01
249.000      1.88781e+01
250.000      1.82557e+01
251.000      1.75035e+01
252.000      1.66467e+01
253.000      1.57100e+01
254.000      1.47141e+01
255.000      1.36737e+01
256.000      1.25969e+01
257.000      1.14875e+01
258.000      1.03489e+01
259.000      9.18933e+00
260.000      8.02674e+00
261.000      6.89120e+00
262.000      5.82348e+00
263.000      4.86937e+00
264.000      4.07149e+00
265.000      3.46104e+00
266.000      3.05287e+00
267.000      2.84567e+00
268.000      2.82751e+00
269.000      2.98442e+00
270.000      3.30853e+00
271.000      3.80203e+00
272.000      4.47466e+00
273.000      5.33487e+00
274.000      6.37767e+00
275.000      7.57365e+00
276.000      8.86398e+00
277.000      1.01642e+01
278.000      1.13763e+01
279.000      1.24064e+01
280.000      1.31817e+01
281.000      1.36622e+01
282.000      1.38446e+01
283.000      1.37568e+01
284.000      1.34476e+01
285.000      1.29744e+01
286.000      1.23927e+01
287.000      1.17510e+01
288.000      1.10891e+01
289.000      1.04392e+01
290.000      9.82663e+00
291.000      9.26901e+00
292.000      8.77383e+00
293.000      8.33572e+00
294.000      7.93614e+00
295.000      7.54708e+00
296.000      7.13845e+00
297.000      6.68711e+00
298.000      6.18423e+00
299.000      5.63819e+00
300.000      5.07224e+00
301.000      4.51801e+00
302.000      4.00787e+00
303.000      3.56878e+00
304.000      3.21956e+00
305.000      2.97137e+00
306.000      2.82991e+00
307.000      2.79744e+00
308.000      2.87298e+00
309.000      3.05064e+00
310.000      3.31703e+00
311.000      3.64939e+00
312.000      4.01604e+00
313.000      4.37964e+00
314.000      4.70276e+00
315.000      4.95388e+00
316.000      5.11232e+00
317.000      5.17067e+00
318.000      5.13467e+00
319.000      5.02115e+00
320.000      4.85526e+00
321.000      4.66791e+00
322.000      4.49360e+00
323.000      4.36859e+00
324.000      4.32889e+00
325.000      4.40806e+00
326.000      4.63487e+00
327.000      5.03090e+00
328.000      5.60824e+00
329.000      6.36702e+00
330.000      7.29291e+00
331.000      8.35551e+00
332.000      9.50868e+00
333.000      1.06943e+01
334.000      1.18495e+01
335.000      1.29160e+01
336.000      1.38486e+01
337.000      1.46200e+01
338.000      1.52204e+01
339.000      1.56523e+01
340.000      1.59230e+01
341.000      1.60388e+01
342.000      1.60022e+01
343.000      1.58137e+01
344.000      1.54749e+01
345.000      1.49921e+01
346.000      1.43771e+01
347.000      1.36471e+01
348.000      1.28226e+01
349.000      1.19267e+01
350.000      1.09860e+01
351.000      1.00328e+01
352.000      9.10685e+00
353.000      8.25336e+00
354.000      7.51840e+00
355.000      6.94070e+00
356.000      6.54311e+00
357.000      6.32643e+00
358.000      6.26798e+00
359.000      6.32545e+00
360.000      6.44491e+00
361.000      6.57071e+00
362.000      6.65438e+00
363.000      6.66076e+00
364.000      6.57054e+00
365.000      6.37977e+00
366.000      6.09729e+00
367.000      5.74141e+00
368.000      5.33654e+00
369.000      4.90981e+00
370.000      4.48807e+00
371.000      4.09492e+00
372.000      3.74861e+00
373.000      3.46075e+00
374.000      3.23648e+00
375.000      3.07575e+00
376.000      2.97524e+00
377.000      2.93048e+00
378.000      2.93731e+00
379.000      2.99245e+00
380.000      3.09300e+00
381.000      3.23494e+00
382.000      3.41101e+00
383.000      3.60888e+00
384.000      3.81033e+00
385.000      3.99237e+00
386.000      4.13052e+00
387.000      4.20356e+00
388.000      4.19830e+00
389.000      4.11254e+00
390.000      3.95483e+00
391.000      3.74114e+00
392.000      3.48965e+00
393.000      3.21569e+00
394.000      2.92882e+00
395.000      2.63290e+00
396.000      2.32860e+00
397.000      2.01696e+00
398.000      1.70217e+00
399.000      1.39253e+00
400.000      1.09929e+00
401.000      8.34145e-01
402.000      6.06474e-01
403.000      4.21433e-01
404.000      2.79335e-01
405.000      1.76329e-01
406.000      1.05872e-01
407.000      6.04054e-02
408.000      3.27235e-02
409.000      1.68213e-02
410.000      8.20060e-03
411.000      3.78997e-03
412.000      1.65989e-03
413.000      6.88725e-04
414.000      2.70667e-04
415.000      1.00731e-04
416.000      3.54938e-05
417.000      1.18399e-05
418.000      3.73853e-06
419.000      1.11730e-06
420.000      3.16023e-07
421.000      8.45904e-08
422.000      2.14267e-08
423.000      5.13568e-09
424.000      1.16476e-09
425.000      2.49952e-10
426.000      5.07513e-11
427.000      9.74988e-12
428.000      1.77217e-12
429.000      3.04760e-13
430.000      4.95855e-14
431.000      7.63288e-15
432.000      1.11162e-15
433.000      1.53164e-16
434.000      1.99658e-17
435.000      2.46231e-18
436.000      2.87293e-19
437.000      3.17125e-20
438.000      3.31177e-21
439.000      3.27199e-22
440.000      3.05833e-23
441.000      2.70444e-24
442.000      2.26252e-25
443.000      1.79071e-26
444.000      1.34084e-27
445.000      9.49837e-29
446.000      6.36560e-30
447.000      4.03598e-31
448.000      2.42090e-32
449.000      1.37379e-33
450.000      7.37540e-35
451.000      3.74600e-36
452.000      1.79998e-37
453.000      8.18249e-39
454.000      3.51901e-40
455.000      1.43177e-41
456.000      5.51119e-43
457.000      2.00694e-44
458.000      6.91419e-46
459.000      2.25354e-47
460.000      6.94877e-49
461.000      2.02707e-50
462.000      5.59429e-52
463.000      1.46063e-53
464.000      3.60789e-55
465.000      8.43109e-57
466.000      1.86394e-58
467.000      3.89850e-60
468.000      7.71402e-62
469.000      1.44405e-63
470.000      2.55741e-65
471.000      4.28485e-67
472.000      6.79187e-69
473.000      1.01850e-70
474.000      1.44494e-72
475.000      1.93935e-74
476.000      2.46252e-76
477.000      2.95816e-78
478.000      3.36188e-80
479.000      3.61459e-82
480.000      3.67666e-84
481.000      3.53806e-86
482.000      3.22103e-88
483.000      2.77423e-90
484.000      2.26051e-92
485.000      1.74257e-94
486.000      1.27084e-96
487.000      8.76814e-99
488.000     5.72325e-101
489.000     3.53424e-103
490.000     2.06475e-105
491.000     1.14118e-107
492.000     5.96706e-110
493.000     2.95178e-112
494.000     1.38142e-114
495.000     6.11622e-117
496.000     2.56188e-119
497.000     1.01520e-121
498.000     3.80596e-124
499.000     1.34987e-126
500.000     4.52939e-129
