# Gaussian folded, width=10 cm^-1
# [cm^-1] arbitrary
0.000      3.00000e+00
1.000      2.91796e+00
2.000      2.68508e+00
3.000      2.33749e+00
4.000      1.92514e+00
5.000      1.50000e+00
6.000      1.10570e+00
7.000      7.71085e-01
8.000      5.08727e-01
9.000      3.17529e-01
10.000      1.87500e-01
11.000      1.04746e-01
12.000      5.53590e-02
13.000      2.76795e-02
14.000      1.30932e-02
15.000      5.85947e-03
16.000      2.48107e-03
17.000      9.94971e-04
18.000      3.81230e-04
19.000      1.50459e-04
20.000      9.38683e-05
21.000      1.56189e-04
22.000      3.98971e-04
23.000      1.04372e-03
24.000      2.61134e-03
25.000      6.20043e-03
26.000      1.39629e-02
27.000      2.98256e-02
28.000      6.04456e-02
29.000      1.16258e-01
30.000      2.12269e-01
31.000      3.68034e-01
32.000      6.06123e-01
33.000      9.48515e-01
34.000      1.41083e+00
35.000      1.99522e+00
36.000      2.68363e+00
37.000      3.43394e+00
38.000      4.18131e+00
39.000      4.84595e+00
40.000      5.34654e+00
41.000      5.61634e+00
42.000      5.61770e+00
43.000      5.35062e+00
44.000      4.85269e+00
45.000      4.19050e+00
46.000      3.44511e+00
47.000      2.69604e+00
48.000      2.00796e+00
49.000      1.42298e+00
50.000      9.59374e-01
51.000      6.15391e-01
52.000      3.75986e-01
53.000      2.19982e-01
54.000      1.26033e-01
55.000      7.66028e-02
56.000      6.00839e-02
57.000      7.15530e-02
58.000      1.12738e-01
59.000      1.91517e-01
60.000      3.20930e-01
61.000      5.17463e-01
62.000      7.98262e-01
63.000      1.17718e+00
64.000      1.65995e+00
65.000      2.23925e+00
66.000      2.89100e+00
67.000      3.57321e+00
68.000      4.22857e+00
69.000      4.79117e+00
70.000      5.19667e+00
71.000      5.39391e+00
72.000      5.35533e+00
73.000      5.08328e+00
74.000      4.61040e+00
75.000      3.99359e+00
76.000      3.30331e+00
77.000      2.61107e+00
78.000      1.97858e+00
79.000      1.45108e+00
80.000      1.05572e+00
81.000      8.04241e-01
82.000      6.97764e-01
83.000      7.31303e-01
84.000      8.96285e-01
85.000      1.18055e+00
86.000      1.56664e+00
87.000      2.03001e+00
88.000      2.53871e+00
89.000      3.05557e+00
90.000      3.54237e+00
91.000      3.96477e+00
92.000      4.29637e+00
93.000      4.52079e+00
94.000      4.63190e+00
95.000      4.63328e+00
96.000      4.53816e+00
97.000      4.37033e+00
98.000      4.16537e+00
99.000      3.97049e+00
100.000      3.84122e+00
101.000      3.83445e+00
102.000      3.99843e+00
103.000      4.36248e+00
104.000      4.92916e+00
105.000      5.67163e+00
106.000      6.53735e+00
107.000      7.45736e+00
108.000      8.35914e+00
109.000      9.17944e+00
110.000      9.87410e+00
111.000      1.04223e+01
112.000      1.08245e+01
113.000      1.10955e+01
114.000      1.12549e+01
115.000      1.13182e+01
116.000      1.12916e+01
117.000      1.11724e+01
118.000      1.09537e+01
119.000      1.06323e+01
120.000      1.02158e+01
121.000      9.72654e+00
122.000      9.20029e+00
123.000      8.68102e+00
124.000      8.21279e+00
125.000      7.83206e+00
126.000      7.56258e+00
127.000      7.41366e+00
128.000      7.38118e+00
129.000      7.45011e+00
130.000      7.59706e+00
131.000      7.79283e+00
132.000      8.00522e+00
133.000      8.20328e+00
134.000      8.36290e+00
135.000      8.47281e+00
136.000      8.53843e+00
137.000      8.58146e+00
138.000      8.63424e+00
139.000      8.73021e+00
140.000      8.89381e+00
141.000      9.13337e+00
142.000      9.43929e+00
143.000      9.78727e+00
144.000      1.01445e+01
145.000      1.04761e+01
146.000      1.07495e+01
147.000      1.09377e+01
148.000      1.10215e+01
149.000      1.09919e+01
150.000      1.08534e+01
151.000      1.06263e+01
152.000      1.03464e+01
153.000      1.00610e+01
154.000      9.82136e+00
155.000      9.67348e+00
156.000      9.64921e+00
157.000      9.75994e+00
158.000      9.99436e+00
159.000      1.03205e+01
160.000      1.06918e+01
161.000      1.10555e+01
162.000      1.13619e+01
163.000      1.15720e+01
164.000      1.16622e+01
165.000      1.16244e+01
166.000      1.14630e+01
167.000      1.11899e+01
168.000      1.08193e+01
169.000      1.03645e+01
170.000      9.83725e+00
171.000      9.24819e+00
172.000      8.60923e+00
173.000      7.93507e+00
174.000      7.24443e+00
175.000      6.56056e+00
176.000      5.91078e+00
177.000      5.32503e+00
178.000      4.83291e+00
179.000      4.45959e+00
180.000      4.22142e+00
181.000      4.12261e+00
182.000      4.15426e+00
183.000      4.29612e+00
184.000      4.52023e+00
185.000      4.79519e+00
186.000      5.08968e+00
187.000      5.37482e+00
188.000      5.62583e+00
189.000      5.82383e+00
190.000      5.95793e+00
191.000      6.02723e+00
192.000      6.04150e+00
193.000      6.01966e+00
194.000      5.98564e+00
195.000      5.96290e+00
196.000      5.96899e+00
197.000      6.01194e+00
198.000      6.08939e+00
199.000      6.19029e+00
200.000      6.29804e+00
201.000      6.39378e+00
202.000      6.45865e+00
203.000      6.47507e+00
204.000      6.42726e+00
205.000      6.30233e+00
206.000      6.09238e+00
207.000      5.79763e+00
208.000      5.42958e+00
209.000      5.01259e+00
210.000      4.58210e+00
211.000      4.17904e+00
212.000      3.84096e+00
213.000      3.59241e+00
214.000      3.43757e+00
215.000      3.35797e+00
216.000      3.31659e+00
217.000      3.26743e+00
218.000      3.16762e+00
219.000      2.98831e+00
220.000      2.72114e+00
221.000      2.37854e+00
222.000      1.98859e+00
223.000      1.58656e+00
224.000      1.20617e+00
225.000      8.72925e-01
226.000      6.01000e-01
227.000      3.93447e-01
228.000      2.44817e-01
229.000      1.44741e-01
230.000      8.12842e-02
231.000      4.33467e-02
232.000      2.19444e-02
233.000      1.05436e-02
234.000      4.80669e-03
235.000      2.07866e-03
236.000      8.52518e-04
237.000      3.31519e-04
238.000      1.22211e-04
239.000      4.26995e-05
240.000      1.41375e-05
241.000      4.43491e-06
242.000      1.31794e-06
243.000      3.70980e-07
244.000      9.88985e-08
245.000      2.49670e-08
246.000      5.96832e-09
247.000      1.35196e-09
248.000      2.96534e-10
249.000      9.70098e-11
250.000      2.06017e-10
251.000      9.38666e-10
252.000      4.26215e-09
253.000      1.83469e-08
254.000      7.47259e-08
255.000      2.87952e-07
256.000      1.04981e-06
257.000      3.62118e-06
258.000      1.18178e-05
259.000      3.64900e-05
260.000      1.06604e-04
261.000      2.94676e-04
262.000      7.70733e-04
263.000      1.90753e-03
264.000      4.46770e-03
265.000      9.90345e-03
266.000      2.07802e-02
267.000      4.12833e-02
268.000      7.76799e-02
269.000      1.38505e-01
270.000      2.34184e-01
271.000      3.75856e-01
272.000      5.73440e-01
273.000      8.33368e-01
274.000      1.15683e+00
275.000      1.53947e+00
276.000      1.97312e+00
277.000      2.44887e+00
278.000      2.96022e+00
279.000      3.50369e+00
280.000      4.07586e+00
281.000      4.66686e+00
282.000      5.25360e+00
283.000      5.79684e+00
284.000      6.24621e+00
285.000      6.55371e+00
286.000      6.69268e+00
287.000      6.67517e+00
288.000      6.56052e+00
289.000      6.45011e+00
290.000      6.46805e+00
291.000      6.73271e+00
292.000      7.32728e+00
293.000      8.27751e+00
294.000      9.54283e+00
295.000      1.10223e+01
296.000      1.25731e+01
297.000      1.40359e+01
298.000      1.52613e+01
299.000      1.61310e+01
300.000      1.65728e+01
301.000      1.65671e+01
302.000      1.61472e+01
303.000      1.53945e+01
304.000      1.44283e+01
305.000      1.33915e+01
306.000      1.24315e+01
307.000      1.16773e+01
308.000      1.12178e+01
309.000      1.10855e+01
310.000      1.12500e+01
311.000      1.16250e+01
312.000      1.20879e+01
313.000      1.25072e+01
314.000      1.27729e+01
315.000      1.28219e+01
316.000      1.26535e+01
317.000      1.23320e+01
318.000      1.19751e+01
319.000      1.17315e+01
320.000      1.17519e+01
321.000      1.21601e+01
322.000      1.30311e+01
323.000      1.43817e+01
324.000      1.61736e+01
325.000      1.83273e+01
326.000      2.07397e+01
327.000      2.32980e+01
328.000      2.58876e+01
329.000      2.83921e+01
330.000      3.06904e+01
331.000      3.26577e+01
332.000      3.41724e+01
333.000      3.51328e+01
334.000      3.54763e+01
335.000      3.51960e+01
336.000      3.43485e+01
337.000      3.30473e+01
338.000      3.14455e+01
339.000      2.97114e+01
340.000      2.80035e+01
341.000      2.64533e+01
342.000      2.51562e+01
343.000      2.41715e+01
344.000      2.35289e+01
345.000      2.32351e+01
346.000      2.32803e+01
347.000      2.36404e+01
348.000      2.42765e+01
349.000      2.51334e+01
350.000      2.61386e+01
351.000      2.72049e+01
352.000      2.82364e+01
353.000      2.91376e+01
354.000      2.98242e+01
355.000      3.02323e+01
356.000      3.03244e+01
357.000      3.00893e+01
358.000      2.95377e+01
359.000      2.86946e+01
360.000      2.75903e+01
361.000      2.62548e+01
362.000      2.47143e+01
363.000      2.29936e+01
364.000      2.11204e+01
365.000      1.91315e+01
366.000      1.70769e+01
367.000      1.50206e+01
368.000      1.30364e+01
369.000      1.12007e+01
370.000      9.58217e+00
371.000      8.23298e+00
372.000      7.18388e+00
373.000      6.44347e+00
374.000      6.00177e+00
375.000      5.83592e+00
376.000      5.91585e+00
377.000      6.20910e+00
378.000      6.68493e+00
379.000      7.31860e+00
380.000      8.09593e+00
381.000      9.01639e+00
382.000      1.00919e+01
383.000      1.13393e+01
384.000      1.27673e+01
385.000      1.43618e+01
386.000      1.60771e+01
387.000      1.78378e+01
388.000      1.95521e+01
389.000      2.11329e+01
390.000      2.25148e+01
391.000      2.36618e+01
392.000      2.45586e+01
393.000      2.51929e+01
394.000      2.55362e+01
395.000      2.55341e+01
396.000      2.51138e+01
397.000      2.42050e+01
398.000      2.27688e+01
399.000      2.08223e+01
400.000      1.84488e+01
401.000      1.57915e+01
402.000      1.30304e+01
403.000      1.03521e+01
404.000      7.91927e+00
405.000      5.84938e+00
406.000      4.20467e+00
407.000      2.99455e+00
408.000      2.18626e+00
409.000      1.71930e+00
410.000      1.51950e+00
411.000      1.51040e+00
412.000      1.62137e+00
413.000      1.79290e+00
414.000      1.98003e+00
415.000      2.15410e+00
416.000      2.30263e+00
417.000      2.42703e+00
418.000      2.53795e+00
419.000      2.64912e+00
420.000      2.77103e+00
421.000      2.90622e+00
422.000      3.04744e+00
423.000      3.17897e+00
424.000      3.28039e+00
425.000      3.33134e+00
426.000      3.31571e+00
427.000      3.22441e+00
428.000      3.05639e+00
429.000      2.81834e+00
430.000      2.52361e+00
431.000      2.19075e+00
432.000      1.84173e+00
433.000      1.49985e+00
434.000      1.18753e+00
435.000      9.24074e-01
436.000      7.23783e-01
437.000      5.94713e-01
438.000      5.37959e-01
439.000      5.47502e-01
440.000      6.10526e-01
441.000      7.08393e-01
442.000      8.18514e-01
443.000      9.17273e-01
444.000      9.83722e-01
445.000      1.00326e+00
446.000      9.70237e-01
447.000      8.88606e-01
448.000      7.70300e-01
449.000      6.31855e-01
450.000      4.90380e-01
451.000      3.60067e-01
452.000      2.50127e-01
453.000      1.64384e-01
454.000      1.02206e-01
455.000      6.01189e-02
456.000      3.34553e-02
457.000      1.76131e-02
458.000      8.77253e-03
459.000      4.13363e-03
460.000      1.84270e-03
461.000      7.77136e-04
462.000      3.10068e-04
463.000      1.17040e-04
464.000      4.17954e-05
465.000      1.41202e-05
466.000      4.51305e-06
467.000      1.36464e-06
468.000      3.90375e-07
469.000      1.05649e-07
470.000      2.70498e-08
471.000      6.55213e-09
472.000      1.50147e-09
473.000      3.25515e-10
474.000      6.67639e-11
475.000      1.29548e-11
476.000      2.37813e-12
477.000      4.13008e-13
478.000      6.78578e-14
479.000      1.05477e-14
480.000      1.55108e-15
481.000      2.15788e-16
482.000      2.84014e-17
483.000      3.53646e-18
484.000      4.16596e-19
485.000      4.64279e-20
486.000      4.89509e-21
487.000      4.88270e-22
488.000      4.60762e-23
489.000      4.11350e-24
490.000      3.47427e-25
491.000      2.77609e-26
492.000      2.09856e-27
493.000      1.50081e-28
494.000      1.01543e-29
495.000      6.49963e-31
496.000      3.93592e-32
497.000      2.25487e-33
498.000      1.22212e-34
499.000      6.26650e-36
500.000      3.03986e-37
