# Gaussian folded, width=10 cm^-1
# [cm^-1] arbitrary
0.000      3.00000e+00
1.000      2.91796e+00
2.000      2.68508e+00
3.000      2.33749e+00
4.000      1.92514e+00
5.000      1.50000e+00
6.000      1.10570e+00
7.000      7.71085e-01
8.000      5.08727e-01
9.000      3.17530e-01
10.000      1.87501e-01
11.000      1.04748e-01
12.000      5.53666e-02
13.000      2.77038e-02
14.000      1.31673e-02
15.000      6.07367e-03
16.000      3.06820e-03
17.000      2.52048e-03
18.000      4.13888e-03
19.000      8.92596e-03
20.000      1.95259e-02
21.000      4.09584e-02
22.000      8.16430e-02
23.000      1.54450e-01
24.000      2.77286e-01
25.000      4.72497e-01
26.000      7.64325e-01
27.000      1.17392e+00
28.000      1.71223e+00
29.000      2.37203e+00
30.000      3.12169e+00
31.000      3.90336e+00
32.000      4.63802e+00
33.000      5.23758e+00
34.000      5.62192e+00
35.000      5.73638e+00
36.000      5.56451e+00
37.000      5.13196e+00
38.000      4.50044e+00
39.000      3.75356e+00
40.000      2.97948e+00
41.000      2.25529e+00
42.000      1.63722e+00
43.000      1.15815e+00
44.000      8.31384e-01
45.000      6.57965e-01
46.000      6.34216e-01
47.000      7.56840e-01
48.000      1.02401e+00
49.000      1.43238e+00
50.000      1.97133e+00
51.000      2.61650e+00
52.000      3.32545e+00
53.000      4.03764e+00
54.000      4.68000e+00
55.000      5.17759e+00
56.000      5.46712e+00
57.000      5.50970e+00
58.000      5.29927e+00
59.000      4.86402e+00
60.000      4.26049e+00
61.000      3.56210e+00
62.000      2.84548e+00
63.000      2.17849e+00
64.000      1.61265e+00
65.000      1.18113e+00
66.000      9.01527e-01
67.000      7.81130e-01
68.000      8.22067e-01
69.000      1.02405e+00
70.000      1.38368e+00
71.000      1.89063e+00
72.000      2.52264e+00
73.000      3.24174e+00
74.000      3.99453e+00
75.000      4.71786e+00
76.000      5.34992e+00
77.000      5.84421e+00
78.000      6.18251e+00
79.000      6.38256e+00
80.000      6.49713e+00
81.000      6.60409e+00
82.000      6.78970e+00
83.000      7.12970e+00
84.000      7.67320e+00
85.000      8.43328e+00
86.000      9.38570e+00
87.000      1.04747e+01
88.000      1.16238e+01
89.000      1.27477e+01
90.000      1.37648e+01
91.000      1.46066e+01
92.000      1.52240e+01
93.000      1.55900e+01
94.000      1.56982e+01
95.000      1.55589e+01
96.000      1.51942e+01
97.000      1.46347e+01
98.000      1.39174e+01
99.000      1.30854e+01
100.000      1.21879e+01
101.000      1.12780e+01
102.000      1.04099e+01
103.000      9.63426e+00
104.000      8.99503e+00
105.000      8.52747e+00
106.000      8.25799e+00
107.000      8.20432e+00
108.000      8.37458e+00
109.000      8.76443e+00
110.000      9.35300e+00
111.000      1.00999e+01
112.000      1.09459e+01
113.000      1.18190e+01
114.000      1.26459e+01
115.000      1.33663e+01
116.000      1.39453e+01
117.000      1.43805e+01
118.000      1.46996e+01
119.000      1.49499e+01
120.000      1.51820e+01
121.000      1.54324e+01
122.000      1.57112e+01
123.000      1.59974e+01
124.000      1.62445e+01
125.000      1.63931e+01
126.000      1.63880e+01
127.000      1.61947e+01
128.000      1.58106e+01
129.000      1.52682e+01
130.000      1.46285e+01
131.000      1.39667e+01
132.000      1.33543e+01
133.000      1.28420e+01
134.000      1.24492e+01
135.000      1.21632e+01
136.000      1.19474e+01
137.000      1.17554e+01
138.000      1.15457e+01
139.000      1.12922e+01
140.000      1.09869e+01
141.000      1.06368e+01
142.000      1.02557e+01
143.000      9.85691e+00
144.000      9.44911e+00
145.000      9.03673e+00
146.000      8.62332e+00
147.000      8.21555e+00
148.000      7.82520e+00
149.000      7.46778e+00
150.000      7.15836e+00
151.000      6.90639e+00
152.000      6.71212e+00
153.000      6.56613e+00
154.000      6.45236e+00
155.000      6.35336e+00
156.000      6.25566e+00
157.000      6.15317e+00
158.000      6.04750e+00
159.000      5.94550e+00
160.000      5.85537e+00
161.000      5.78313e+00
162.000      5.73111e+00
163.000      5.69894e+00
164.000      5.68640e+00
165.000      5.69668e+00
166.000      5.73822e+00
167.000      5.82406e+00
168.000      5.96864e+00
169.000      6.18329e+00
170.000      6.47232e+00
171.000      6.83129e+00
172.000      7.24830e+00
173.000      7.70746e+00
174.000      8.19324e+00
175.000      8.69366e+00
176.000      9.20135e+00
177.000      9.71223e+00
178.000      1.02228e+01
179.000      1.07276e+01
180.000      1.12183e+01
181.000      1.16853e+01
182.000      1.21210e+01
183.000      1.25230e+01
184.000      1.28965e+01
185.000      1.32529e+01
186.000      1.36058e+01
187.000      1.39656e+01
188.000      1.43344e+01
189.000      1.47047e+01
190.000      1.50621e+01
191.000      1.53909e+01
192.000      1.56814e+01
193.000      1.59354e+01
194.000      1.61674e+01
195.000      1.64018e+01
196.000      1.66658e+01
197.000      1.69811e+01
198.000      1.73574e+01
199.000      1.77874e+01
200.000      1.82472e+01
201.000      1.86990e+01
202.000      1.90974e+01
203.000      1.93965e+01
204.000      1.95570e+01
205.000      1.95523e+01
206.000      1.93732e+01
207.000      1.90290e+01
208.000      1.85464e+01
209.000      1.79647e+01
210.000      1.73284e+01
211.000      1.66774e+01
212.000      1.60395e+01
213.000      1.54255e+01
214.000      1.48322e+01
215.000      1.42506e+01
216.000      1.36785e+01
217.000      1.31293e+01
218.000      1.26353e+01
219.000      1.22398e+01
220.000      1.19837e+01
221.000      1.18891e+01
222.000      1.19492e+01
223.000      1.21280e+01
224.000      1.23711e+01
225.000      1.26229e+01
226.000      1.28434e+01
227.000      1.30198e+01
228.000      1.31681e+01
229.000      1.33249e+01
230.000      1.35346e+01
231.000      1.38352e+01
232.000      1.42473e+01
233.000      1.47697e+01
234.000      1.53796e+01
235.000      1.60388e+01
236.000      1.67015e+01
237.000      1.73225e+01
238.000      1.78647e+01
239.000      1.83042e+01
240.000      1.86324e+01
241.000      1.88554e+01
242.000      1.89903e+01
243.000      1.90607e+01
244.000      1.90898e+01
245.000      1.90945e+01
246.000      1.90803e+01
247.000      1.90382e+01
248.000      1.89443e+01
249.000      1.87623e+01
250.000      1.84491e+01
251.000      1.79627e+01
252.000      1.72718e+01
253.000      1.63646e+01
254.000      1.52555e+01
255.000      1.39864e+01
256.000      1.26231e+01
257.000      1.12453e+01
258.000      9.93352e+00
259.000      8.75641e+00
260.000      7.75999e+00
261.000      6.96314e+00
262.000      6.35889e+00
263.000      5.92059e+00
264.000      5.61087e+00
265.000      5.39062e+00
266.000      5.22633e+00
267.000      5.09494e+00
268.000      4.98678e+00
269.000      4.90697e+00
270.000      4.87551e+00
271.000      4.92542e+00
272.000      5.09785e+00
273.000      5.43369e+00
274.000      5.96270e+00
275.000      6.69238e+00
276.000      7.59993e+00
277.000      8.63021e+00
278.000      9.70116e+00
279.000      1.07162e+01
280.000      1.15808e+01
281.000      1.22202e+01
282.000      1.25928e+01
283.000      1.26971e+01
284.000      1.25688e+01
285.000      1.22705e+01
286.000      1.18742e+01
287.000      1.14448e+01
288.000      1.10258e+01
289.000      1.06341e+01
290.000      1.02620e+01
291.000      9.88585e+00
292.000      9.47780e+00
293.000      9.01614e+00
294.000      8.49257e+00
295.000      7.91503e+00
296.000      7.30656e+00
297.000      6.70093e+00
298.000      6.13588e+00
299.000      5.64519e+00
300.000      5.25111e+00
301.000      4.95897e+00
302.000      4.75609e+00
303.000      4.61548e+00
304.000      4.50385e+00
305.000      4.39151e+00
306.000      4.26087e+00
307.000      4.11089e+00
308.000      3.95585e+00
309.000      3.81919e+00
310.000      3.72438e+00
311.000      3.68609e+00
312.000      3.70466e+00
313.000      3.76553e+00
314.000      3.84387e+00
315.000      3.91276e+00
316.000      3.95238e+00
317.000      3.95748e+00
318.000      3.94074e+00
319.000      3.93111e+00
320.000      3.96720e+00
321.000      4.08767e+00
322.000      4.32102e+00
323.000      4.67795e+00
324.000      5.14849e+00
325.000      5.70495e+00
326.000      6.30949e+00
327.000      6.92395e+00
328.000      7.51865e+00
329.000      8.07782e+00
330.000      8.60059e+00
331.000      9.09827e+00
332.000      9.58972e+00
333.000      1.00961e+01
334.000      1.06359e+01
335.000      1.12206e+01
336.000      1.18499e+01
337.000      1.25084e+01
338.000      1.31635e+01
339.000      1.37678e+01
340.000      1.42656e+01
341.000      1.46033e+01
342.000      1.47412e+01
343.000      1.46623e+01
344.000      1.43760e+01
345.000      1.39134e+01
346.000      1.33189e+01
347.000      1.26380e+01
348.000      1.19085e+01
349.000      1.11559e+01
350.000      1.03956e+01
351.000      9.63839e+00
352.000      8.89798e+00
353.000      8.19492e+00
354.000      7.55703e+00
355.000      7.01503e+00
356.000      6.59553e+00
357.000      6.31362e+00
358.000      6.16771e+00
359.000      6.13811e+00
360.000      6.19018e+00
361.000      6.28101e+00
362.000      6.36798e+00
363.000      6.41670e+00
364.000      6.40595e+00
365.000      6.32846e+00
366.000      6.18768e+00
367.000      5.99253e+00
368.000      5.75260e+00
369.000      5.47592e+00
370.000      5.16987e+00
371.000      4.84408e+00
372.000      4.51327e+00
373.000      4.19777e+00
374.000      3.92100e+00
375.000      3.70452e+00
376.000      3.56239e+00
377.000      3.49718e+00
378.000      3.49902e+00
379.000      3.54835e+00
380.000      3.62135e+00
381.000      3.69652e+00
382.000      3.75993e+00
383.000      3.80740e+00
384.000      3.84261e+00
385.000      3.87183e+00
386.000      3.89731e+00
387.000      3.91228e+00
388.000      3.90001e+00
389.000      3.83796e+00
390.000      3.70559e+00
391.000      3.49301e+00
392.000      3.20665e+00
393.000      2.86955e+00
394.000      2.51579e+00
395.000      2.18108e+00
396.000      1.89295e+00
397.000      1.66411e+00
398.000      1.49101e+00
399.000      1.35757e+00
400.000      1.24225e+00
401.000      1.12566e+00
402.000      9.95994e-01
403.000      8.51087e-01
404.000      6.96966e-01
405.000      5.44239e-01
406.000      4.03966e-01
407.000      2.84476e-01
408.000      1.89843e-01
409.000      1.19976e-01
410.000      7.17744e-02
411.000      4.06362e-02
412.000      2.17703e-02
413.000      1.10354e-02
414.000      5.29247e-03
415.000      2.40141e-03
416.000      1.03087e-03
417.000      4.18661e-04
418.000      1.60859e-04
419.000      5.84719e-05
420.000      2.01080e-05
421.000      6.54196e-06
422.000      2.01357e-06
423.000      5.86329e-07
424.000      1.61523e-07
425.000      4.20965e-08
426.000      1.03795e-08
427.000      2.42114e-09
428.000      5.34300e-10
429.000      1.11549e-10
430.000      2.20326e-11
431.000      4.11701e-12
432.000      7.27808e-13
433.000      1.21722e-13
434.000      1.92592e-14
435.000      2.88287e-15
436.000      4.08254e-16
437.000      5.46957e-17
438.000      6.93255e-18
439.000      8.31286e-19
440.000      9.43031e-20
441.000      1.01209e-20
442.000      1.02761e-21
443.000      9.87091e-23
444.000      8.97021e-24
445.000      7.71198e-25
446.000      6.27259e-26
447.000      4.82664e-27
448.000      3.51367e-28
449.000      2.41989e-29
450.000      1.57669e-30
451.000      9.71885e-32
452.000      5.66763e-33
453.000      3.12684e-34
454.000      1.63203e-35
455.000      8.05872e-37
456.000      3.76464e-38
457.000      1.66379e-39
458.000      6.95648e-41
459.000      2.75169e-42
460.000      1.02974e-43
461.000      3.64562e-45
462.000      1.22105e-46
463.000      3.86913e-48
464.000      1.15988e-49
465.000      3.28947e-51
466.000      8.82591e-53
467.000      2.24032e-54
468.000      5.37995e-56
469.000      1.22226e-57
470.000      2.62704e-59
471.000      5.34180e-61
472.000      1.02760e-62
473.000      1.87017e-64
474.000      3.22000e-66
475.000      5.24502e-68
476.000      8.08269e-70
477.000      1.17837e-71
478.000      1.62527e-73
479.000      2.12074e-75
480.000      2.61798e-77
481.000      3.05748e-79
482.000      3.37815e-81
483.000      3.53110e-83
484.000      3.49189e-85
485.000      3.26684e-87
486.000      2.89143e-89
487.000      2.42111e-91
488.000      1.91794e-93
489.000      1.43738e-95
490.000      1.01913e-97
491.000     6.83597e-100
492.000     4.33801e-102
493.000     2.60435e-104
494.000     1.47919e-106
495.000     7.94818e-109
496.000     4.04044e-111
497.000     1.94315e-113
498.000     8.84103e-116
499.000     3.80554e-118
500.000     1.54970e-120
