# Gaussian folded, width=10 cm^-1
# [cm^-1] arbitrary
0.000      3.00000e+00
1.000      2.91796e+00
2.000      2.68508e+00
3.000      2.33749e+00
4.000      1.92514e+00
5.000      1.50000e+00
6.000      1.10570e+00
7.000      7.71085e-01
8.000      5.08727e-01
9.000      3.17530e-01
10.000      1.87503e-01
11.000      1.04755e-01
12.000      5.53902e-02
13.000      2.77753e-02
14.000      1.33714e-02
15.000      6.62488e-03
16.000      4.47558e-03
17.000      5.91726e-03
18.000      1.18864e-02
19.000      2.56200e-02
20.000      5.34956e-02
21.000      1.06201e-01
22.000      1.99836e-01
23.000      3.56247e-01
24.000      6.01641e-01
25.000      9.62583e-01
26.000      1.45903e+00
27.000      2.09519e+00
28.000      2.85054e+00
29.000      3.67435e+00
30.000      4.48735e+00
31.000      5.19232e+00
32.000      5.69244e+00
33.000      5.91295e+00
34.000      5.81949e+00
35.000      5.42696e+00
36.000      4.79586e+00
37.000      4.01751e+00
38.000      3.19341e+00
39.000      2.41554e+00
40.000      1.75326e+00
41.000      1.24942e+00
42.000      9.24365e-01
43.000      7.84411e-01
44.000      8.30082e-01
45.000      1.06049e+00
46.000      1.47206e+00
47.000      2.05214e+00
48.000      2.77042e+00
49.000      3.57223e+00
50.000      4.37796e+00
51.000      5.09113e+00
52.000      5.61459e+00
53.000      5.87076e+00
54.000      5.81985e+00
55.000      5.46971e+00
56.000      4.87389e+00
57.000      4.11859e+00
58.000      3.30299e+00
59.000      2.51957e+00
60.000      1.83999e+00
61.000      1.30972e+00
62.000      9.50654e-01
63.000      7.68811e-01
64.000      7.62748e-01
65.000      9.29138e-01
66.000      1.26358e+00
67.000      1.75685e+00
68.000      2.38874e+00
69.000      3.12289e+00
70.000      3.90589e+00
71.000      4.67304e+00
72.000      5.36029e+00
73.000      5.91972e+00
74.000      6.33362e+00
75.000      6.62209e+00
76.000      6.84075e+00
77.000      7.06853e+00
78.000      7.38893e+00
79.000      7.87037e+00
80.000      8.55134e+00
81.000      9.43431e+00
82.000      1.04884e+01
83.000      1.16587e+01
84.000      1.28767e+01
85.000      1.40696e+01
86.000      1.51653e+01
87.000      1.60946e+01
88.000      1.67929e+01
89.000      1.72031e+01
90.000      1.72827e+01
91.000      1.70113e+01
92.000      1.63986e+01
93.000      1.54871e+01
94.000      1.43497e+01
95.000      1.30817e+01
96.000      1.17882e+01
97.000      1.05720e+01
98.000      9.52342e+00
99.000      8.71351e+00
100.000      8.19123e+00
101.000      7.98294e+00
102.000      8.09327e+00
103.000      8.50659e+00
104.000      9.18919e+00
105.000      1.00922e+01
106.000      1.11557e+01
107.000      1.23131e+01
108.000      1.34968e+01
109.000      1.46428e+01
110.000      1.56957e+01
111.000      1.66121e+01
112.000      1.73625e+01
113.000      1.79309e+01
114.000      1.83123e+01
115.000      1.85086e+01
116.000      1.85246e+01
117.000      1.83662e+01
118.000      1.80421e+01
119.000      1.75680e+01
120.000      1.69717e+01
121.000      1.62966e+01
122.000      1.56000e+01
123.000      1.49452e+01
124.000      1.43903e+01
125.000      1.39754e+01
126.000      1.37136e+01
127.000      1.35890e+01
128.000      1.35617e+01
129.000      1.35798e+01
130.000      1.35926e+01
131.000      1.35627e+01
132.000      1.34717e+01
133.000      1.33188e+01
134.000      1.31142e+01
135.000      1.28688e+01
136.000      1.25860e+01
137.000      1.22576e+01
138.000      1.18653e+01
139.000      1.13880e+01
140.000      1.08103e+01
141.000      1.01298e+01
142.000      9.36098e+00
143.000      8.53391e+00
144.000      7.68850e+00
145.000      6.86661e+00
146.000      6.10376e+00
147.000      5.42290e+00
148.000      4.83129e+00
149.000      4.32130e+00
150.000      3.87469e+00
151.000      3.46943e+00
152.000      3.08739e+00
153.000      2.72091e+00
154.000      2.37664e+00
155.000      2.07561e+00
156.000      1.84958e+00
157.000      1.73495e+00
158.000      1.76561e+00
159.000      1.96655e+00
160.000      2.34907e+00
161.000      2.90788e+00
162.000      3.62021e+00
163.000      4.44676e+00
164.000      5.33501e+00
165.000      6.22588e+00
166.000      7.06410e+00
167.000      7.81155e+00
168.000      8.46024e+00
169.000      9.04001e+00
170.000      9.61562e+00
171.000      1.02708e+01
172.000      1.10821e+01
173.000      1.20899e+01
174.000      1.32781e+01
175.000      1.45699e+01
176.000      1.58442e+01
177.000      1.69662e+01
178.000      1.78240e+01
179.000      1.83570e+01
180.000      1.85698e+01
181.000      1.85262e+01
182.000      1.83274e+01
183.000      1.80818e+01
184.000      1.78741e+01
185.000      1.77435e+01
186.000      1.76769e+01
187.000      1.76205e+01
188.000      1.75074e+01
189.000      1.72939e+01
190.000      1.69928e+01
191.000      1.66912e+01
192.000      1.65431e+01
193.000      1.67366e+01
194.000      1.74435e+01
195.000      1.87658e+01
196.000      2.06965e+01
197.000      2.31079e+01
198.000      2.57711e+01
199.000      2.84020e+01
200.000      3.07191e+01
201.000      3.24969e+01
202.000      3.36000e+01
203.000      3.39931e+01
204.000      3.37273e+01
205.000      3.29125e+01
206.000      3.16846e+01
207.000      3.01775e+01
208.000      2.85046e+01
209.000      2.67493e+01
210.000      2.49651e+01
211.000      2.31824e+01
212.000      2.14191e+01
213.000      1.96922e+01
214.000      1.80259e+01
215.000      1.64535e+01
216.000      1.50110e+01
217.000      1.37259e+01
218.000      1.26045e+01
219.000      1.16262e+01
220.000      1.07463e+01
221.000      9.90849e+00
222.000      9.06433e+00
223.000      8.19168e+00
224.000      7.30753e+00
225.000      6.47023e+00
226.000      5.77060e+00
227.000      5.31413e+00
228.000      5.19879e+00
229.000      5.49389e+00
230.000      6.22446e+00
231.000      7.36493e+00
232.000      8.84322e+00
233.000      1.05546e+01
234.000      1.23823e+01
235.000      1.42189e+01
236.000      1.59845e+01
237.000      1.76353e+01
238.000      1.91619e+01
239.000      2.05781e+01
240.000      2.19050e+01
241.000      2.31550e+01
242.000      2.43201e+01
243.000      2.53680e+01
244.000      2.62432e+01
245.000      2.68750e+01
246.000      2.71876e+01
247.000      2.71118e+01
248.000      2.65972e+01
249.000      2.56221e+01
250.000      2.42006e+01
251.000      2.23849e+01
252.000      2.02613e+01
253.000      1.79408e+01
254.000      1.55459e+01
255.000      1.31960e+01
256.000      1.09951e+01
257.000      9.02398e+00
258.000      7.33719e+00
259.000      5.96495e+00
260.000      4.91710e+00
261.000      4.18806e+00
262.000      3.76149e+00
263.000      3.61459e+00
264.000      3.72263e+00
265.000      4.06387e+00
266.000      4.62414e+00
267.000      5.39965e+00
268.000      6.39595e+00
269.000      7.62244e+00
270.000      9.08306e+00
271.000      1.07658e+01
272.000      1.26350e+01
273.000      1.46287e+01
274.000      1.66633e+01
275.000      1.86433e+01
276.000      2.04728e+01
277.000      2.20656e+01
278.000      2.33503e+01
279.000      2.42719e+01
280.000      2.47887e+01
281.000      2.48714e+01
282.000      2.45035e+01
283.000      2.36862e+01
284.000      2.24450e+01
285.000      2.08354e+01
286.000      1.89442e+01
287.000      1.68843e+01
288.000      1.47839e+01
289.000      1.27711e+01
290.000      1.09583e+01
291.000      9.42887e+00
292.000      8.22860e+00
293.000      7.36283e+00
294.000      6.79972e+00
295.000      6.47840e+00
296.000      6.32085e+00
297.000      6.24531e+00
298.000      6.17895e+00
299.000      6.06754e+00
300.000      5.88038e+00
301.000      5.61003e+00
302.000      5.26751e+00
303.000      4.87517e+00
304.000      4.45968e+00
305.000      4.04726e+00
306.000      3.66174e+00
307.000      3.32479e+00
308.000      3.05626e+00
309.000      2.87324e+00
310.000      2.78717e+00
311.000      2.80004e+00
312.000      2.90166e+00
313.000      3.06997e+00
314.000      3.27470e+00
315.000      3.48380e+00
316.000      3.66999e+00
317.000      3.81537e+00
318.000      3.91230e+00
319.000      3.96077e+00
320.000      3.96390e+00
321.000      3.92376e+00
322.000      3.83952e+00
323.000      3.70853e+00
324.000      3.52962e+00
325.000      3.30638e+00
326.000      3.04879e+00
327.000      2.77191e+00
328.000      2.49208e+00
329.000      2.22256e+00
330.000      1.97026e+00
331.000      1.73533e+00
332.000      1.51334e+00
333.000      1.29901e+00
334.000      1.08961e+00
335.000      8.86666e-01
336.000      6.95495e-01
337.000      5.23138e-01
338.000      3.75844e-01
339.000      2.57164e-01
340.000      1.67236e-01
341.000      1.03214e-01
342.000      6.03954e-02
343.000      3.34833e-02
344.000      1.75796e-02
345.000      8.73789e-03
346.000      4.11080e-03
347.000      1.83022e-03
348.000      7.71071e-04
349.000      3.07375e-04
350.000      1.15932e-04
351.000      4.13704e-05
352.000      1.39674e-05
353.000      4.46140e-06
354.000      1.34820e-06
355.000      3.85446e-07
356.000      1.04254e-07
357.000      2.66776e-08
358.000      6.45831e-09
359.000      1.47914e-09
360.000      3.20494e-10
361.000      6.56973e-11
362.000      1.27407e-11
363.000      2.33754e-12
364.000      4.05733e-13
365.000      6.66254e-14
366.000      1.03504e-14
367.000      1.52122e-15
368.000      2.11517e-16
369.000      2.78238e-17
370.000      3.46262e-18
371.000      4.07672e-19
372.000      4.54082e-20
373.000      4.78492e-21
374.000      4.77017e-22
375.000      4.49894e-23
376.000      4.01424e-24
377.000      3.38856e-25
378.000      2.70610e-26
379.000      2.04452e-27
380.000      1.46135e-28
381.000      9.88183e-30
382.000      6.32174e-31
383.000      3.82608e-32
384.000      2.19073e-33
385.000      1.18670e-34
386.000      6.08150e-36
387.000      2.94848e-37
388.000      1.35239e-38
389.000      5.86848e-40
390.000      2.40916e-41
391.000      9.35673e-43
392.000      3.43795e-44
393.000      1.19507e-45
394.000      3.93010e-47
395.000      1.22273e-48
396.000      3.59896e-50
397.000      1.00217e-51
398.000      2.64011e-53
399.000      6.57992e-55
400.000      1.55145e-56
401.000      3.46075e-58
402.000      7.30335e-60
403.000      1.45811e-61
404.000      2.75409e-63
405.000      4.92133e-65
406.000      8.31963e-67
407.000      1.33059e-68
408.000      2.01326e-70
409.000      2.88188e-72
410.000      3.90272e-74
411.000      5.00009e-76
412.000      6.06045e-78
413.000      6.94945e-80
414.000      7.53899e-82
415.000      7.73737e-84
416.000      7.51261e-86
417.000      6.90091e-88
418.000      5.99708e-90
419.000      4.93049e-92
420.000      3.83494e-94
421.000      2.82192e-96
422.000      1.96448e-98
423.000     1.29381e-100
424.000     8.06135e-103
425.000     4.75186e-105
426.000     2.64995e-107
427.000     1.39807e-109
428.000     6.97812e-112
429.000     3.29507e-114
430.000     1.47201e-116
431.000     6.22116e-119
432.000     2.48743e-121
433.000     9.40910e-124
434.000     3.36715e-126
435.000     1.13997e-128
436.000     3.65128e-131
437.000     1.10640e-133
438.000     3.17174e-136
439.000     8.60201e-139
440.000     2.20709e-141
441.000     5.35745e-144
442.000     1.23031e-146
443.000     2.67293e-149
444.000     5.49386e-152
445.000     1.06828e-154
446.000     1.96522e-157
447.000     3.42023e-160
448.000     5.63140e-163
449.000     8.77193e-166
450.000     1.29268e-168
451.000     1.80221e-171
452.000     2.37704e-174
453.000     2.96610e-177
454.000     3.50149e-180
455.000     3.91054e-183
456.000     4.13180e-186
457.000     4.13008e-189
458.000     3.90567e-192
459.000     3.49422e-195
460.000     2.95748e-198
461.000     2.36817e-201
462.000     1.79399e-204
463.000     1.28572e-207
464.000     8.71741e-211
465.000     5.59175e-214
466.000     3.39333e-217
467.000     1.94815e-220
468.000     1.05812e-223
469.000     5.43707e-227
470.000     2.64310e-230
471.000     1.21557e-233
472.000     5.28887e-237
473.000     2.17703e-240
474.000     8.47779e-244
475.000     3.12334e-247
476.000     1.08861e-250
477.000     3.58959e-254
478.000     1.11978e-257
479.000     3.30476e-261
480.000     9.22709e-265
481.000     2.43729e-268
482.000     6.09068e-272
483.000     1.43994e-275
484.000     3.22061e-279
485.000     6.81475e-283
486.000     1.36421e-286
487.000     2.58361e-290
488.000     4.62906e-294
489.000     7.84649e-298
490.000     1.25828e-301
491.000     1.90895e-305
492.000     2.73986e-309
493.000     3.72034e-313
494.000     4.77918e-317
495.000     5.81021e-321
496.000      0.00000e+00
497.000      0.00000e+00
498.000      0.00000e+00
499.000      0.00000e+00
500.000      0.00000e+00
