# Gaussian folded, width=10 cm^-1
# [cm^-1] arbitrary
0.000      3.00000e+00
1.000      2.91796e+00
2.000      2.68508e+00
3.000      2.33749e+00
4.000      1.92514e+00
5.000      1.50000e+00
6.000      1.10570e+00
7.000      7.71085e-01
8.000      5.08727e-01
9.000      3.17530e-01
10.000      1.87500e-01
11.000      1.04747e-01
12.000      5.53639e-02
13.000      2.76959e-02
14.000      1.31446e-02
15.000      6.01271e-03
16.000      2.91401e-03
17.000      2.15389e-03
18.000      3.32068e-03
19.000      7.21443e-03
20.000      1.61777e-02
21.000      3.48507e-02
22.000      7.12949e-02
23.000      1.38262e-01
24.000      2.54119e-01
25.000      4.42631e-01
26.000      7.30657e-01
27.000      1.14301e+00
28.000      1.69451e+00
29.000      2.38063e+00
30.000      3.16946e+00
31.000      3.99866e+00
32.000      4.78046e+00
33.000      5.41549e+00
34.000      5.81310e+00
35.000      5.91244e+00
36.000      5.69773e+00
37.000      5.20245e+00
38.000      4.50083e+00
39.000      3.68997e+00
40.000      2.86831e+00
41.000      2.11762e+00
42.000      1.49276e+00
43.000      1.02085e+00
44.000      7.07614e-01
45.000      5.47391e-01
46.000      5.32585e-01
47.000      6.59674e-01
48.000      9.30171e-01
49.000      1.34657e+00
50.000      1.90468e+00
51.000      2.58481e+00
52.000      3.34509e+00
53.000      4.11998e+00
54.000      4.82609e+00
55.000      5.37513e+00
56.000      5.69123e+00
57.000      5.72783e+00
58.000      5.47888e+00
59.000      4.98059e+00
60.000      4.30310e+00
61.000      3.53495e+00
62.000      2.76529e+00
63.000      2.06921e+00
64.000      1.49964e+00
65.000      1.08678e+00
66.000      8.42945e-01
67.000      7.69790e-01
68.000      8.64179e-01
69.000      1.12058e+00
70.000      1.52942e+00
71.000      2.07273e+00
72.000      2.71969e+00
73.000      3.42494e+00
74.000      4.13177e+00
75.000      4.78073e+00
76.000      5.32177e+00
77.000      5.72683e+00
78.000      5.99865e+00
79.000      6.17269e+00
80.000      6.31071e+00
81.000      6.48717e+00
82.000      6.77198e+00
83.000      7.21448e+00
84.000      7.83316e+00
85.000      8.61387e+00
86.000      9.51644e+00
87.000      1.04865e+01
88.000      1.14680e+01
89.000      1.24118e+01
90.000      1.32783e+01
91.000      1.40349e+01
92.000      1.46514e+01
93.000      1.50964e+01
94.000      1.53377e+01
95.000      1.53469e+01
96.000      1.51067e+01
97.000      1.46177e+01
98.000      1.39036e+01
99.000      1.30108e+01
100.000      1.20045e+01
101.000      1.09610e+01
102.000      9.95933e+00
103.000      9.07274e+00
104.000      8.36345e+00
105.000      7.87919e+00
106.000      7.65189e+00
107.000      7.69704e+00
108.000      8.01309e+00
109.000      8.58073e+00
110.000      9.36289e+00
111.000      1.03064e+01
112.000      1.13459e+01
113.000      1.24108e+01
114.000      1.34331e+01
115.000      1.43554e+01
116.000      1.51365e+01
117.000      1.57538e+01
118.000      1.62010e+01
119.000      1.64840e+01
120.000      1.66149e+01
121.000      1.66078e+01
122.000      1.64771e+01
123.000      1.62380e+01
124.000      1.59088e+01
125.000      1.55132e+01
126.000      1.50808e+01
127.000      1.46450e+01
128.000      1.42382e+01
129.000      1.38861e+01
130.000      1.36019e+01
131.000      1.33831e+01
132.000      1.32112e+01
133.000      1.30563e+01
134.000      1.28846e+01
135.000      1.26671e+01
136.000      1.23873e+01
137.000      1.20458e+01
138.000      1.16589e+01
139.000      1.12535e+01
140.000      1.08585e+01
141.000      1.04968e+01
142.000      1.01800e+01
143.000      9.90679e+00
144.000      9.66573e+00
145.000      9.44015e+00
146.000      9.21303e+00
147.000      8.97049e+00
148.000      8.70329e+00
149.000      8.40683e+00
150.000      8.08052e+00
151.000      7.72725e+00
152.000      7.35289e+00
153.000      6.96574e+00
154.000      6.57549e+00
155.000      6.19188e+00
156.000      5.82374e+00
157.000      5.47876e+00
158.000      5.16433e+00
159.000      4.88908e+00
160.000      4.66463e+00
161.000      4.50652e+00
162.000      4.43371e+00
163.000      4.46601e+00
164.000      4.61954e+00
165.000      4.90096e+00
166.000      5.30242e+00
167.000      5.79946e+00
168.000      6.35374e+00
169.000      6.92067e+00
170.000      7.46004e+00
171.000      7.94592e+00
172.000      8.37208e+00
173.000      8.75094e+00
174.000      9.10651e+00
175.000      9.46426e+00
176.000      9.84185e+00
177.000      1.02440e+01
178.000      1.06627e+01
179.000      1.10822e+01
180.000      1.14862e+01
181.000      1.18636e+01
182.000      1.22122e+01
183.000      1.25371e+01
184.000      1.28460e+01
185.000      1.31435e+01
186.000      1.34274e+01
187.000      1.36876e+01
188.000      1.39116e+01
189.000      1.40911e+01
190.000      1.42295e+01
191.000      1.43467e+01
192.000      1.44772e+01
193.000      1.46644e+01
194.000      1.49496e+01
195.000      1.53620e+01
196.000      1.59106e+01
197.000      1.65806e+01
198.000      1.73354e+01
199.000      1.81216e+01
200.000      1.88771e+01
201.000      1.95387e+01
202.000      2.00493e+01
203.000      2.03635e+01
204.000      2.04516e+01
205.000      2.03020e+01
206.000      1.99218e+01
207.000      1.93363e+01
208.000      1.85847e+01
209.000      1.77158e+01
210.000      1.67817e+01
211.000      1.58320e+01
212.000      1.49101e+01
213.000      1.40514e+01
214.000      1.32848e+01
215.000      1.26352e+01
216.000      1.21259e+01
217.000      1.17785e+01
218.000      1.16105e+01
219.000      1.16295e+01
220.000      1.18269e+01
221.000      1.21746e+01
222.000      1.26251e+01
223.000      1.31183e+01
224.000      1.35921e+01
225.000      1.39949e+01
226.000      1.42957e+01
227.000      1.44894e+01
228.000      1.45970e+01
229.000      1.46597e+01
230.000      1.47298e+01
231.000      1.48603e+01
232.000      1.50943e+01
233.000      1.54575e+01
234.000      1.59527e+01
235.000      1.65597e+01
236.000      1.72392e+01
237.000      1.79406e+01
238.000      1.86123e+01
239.000      1.92104e+01
240.000      1.97042e+01
241.000      2.00778e+01
242.000      2.03267e+01
243.000      2.04531e+01
244.000      2.04599e+01
245.000      2.03476e+01
246.000      2.01132e+01
247.000      1.97509e+01
248.000      1.92549e+01
249.000      1.86217e+01
250.000      1.78526e+01
251.000      1.69562e+01
252.000      1.59494e+01
253.000      1.48581e+01
254.000      1.37158e+01
255.000      1.25604e+01
256.000      1.14284e+01
257.000      1.03490e+01
258.000      9.33889e+00
259.000      8.40091e+00
260.000      7.52622e+00
261.000      6.70080e+00
262.000      5.91341e+00
263.000      5.16218e+00
264.000      4.45753e+00
265.000      3.82064e+00
266.000      3.27879e+00
267.000      2.86035e+00
268.000      2.59187e+00
269.000      2.49820e+00
270.000      2.60423e+00
271.000      2.93548e+00
272.000      3.51447e+00
273.000      4.35220e+00
274.000      5.43666e+00
275.000      6.72300e+00
276.000      8.13076e+00
277.000      9.55162e+00
278.000      1.08674e+01
279.000      1.19734e+01
280.000      1.28001e+01
281.000      1.33248e+01
282.000      1.35698e+01
283.000      1.35884e+01
284.000      1.34432e+01
285.000      1.31867e+01
286.000      1.28494e+01
287.000      1.24397e+01
288.000      1.19530e+01
289.000      1.13848e+01
290.000      1.07416e+01
291.000      1.00444e+01
292.000      9.32548e+00
293.000      8.61886e+00
294.000      7.95123e+00
295.000      7.33586e+00
296.000      6.77226e+00
297.000      6.25099e+00
298.000      5.76060e+00
299.000      5.29388e+00
300.000      4.85094e+00
301.000      4.43897e+00
302.000      4.06985e+00
303.000      3.75743e+00
304.000      3.51543e+00
305.000      3.35616e+00
306.000      3.28890e+00
307.000      3.31746e+00
308.000      3.43693e+00
309.000      3.63115e+00
310.000      3.87286e+00
311.000      4.12766e+00
312.000      4.36154e+00
313.000      4.54977e+00
314.000      4.68409e+00
315.000      4.77525e+00
316.000      4.84984e+00
317.000      4.94214e+00
318.000      5.08356e+00
319.000      5.29328e+00
320.000      5.57267e+00
321.000      5.90529e+00
322.000      6.26198e+00
323.000      6.60923e+00
324.000      6.91851e+00
325.000      7.17358e+00
326.000      7.37424e+00
327.000      7.53559e+00
328.000      7.68339e+00
329.000      7.84687e+00
330.000      8.05120e+00
331.000      8.31162e+00
332.000      8.63095e+00
333.000      9.00109e+00
334.000      9.40780e+00
335.000      9.83691e+00
336.000      1.02796e+01
337.000      1.07341e+01
338.000      1.12040e+01
339.000      1.16924e+01
340.000      1.21957e+01
341.000      1.26982e+01
342.000      1.31712e+01
343.000      1.35760e+01
344.000      1.38703e+01
345.000      1.40160e+01
346.000      1.39867e+01
347.000      1.37719e+01
348.000      1.33789e+01
349.000      1.28309e+01
350.000      1.21633e+01
351.000      1.14194e+01
352.000      1.06449e+01
353.000      9.88444e+00
354.000      9.17703e+00
355.000      8.55342e+00
356.000      8.03338e+00
357.000      7.62431e+00
358.000      7.32144e+00
359.000      7.10973e+00
360.000      6.96703e+00
361.000      6.86736e+00
362.000      6.78330e+00
363.000      6.68750e+00
364.000      6.55369e+00
365.000      6.35867e+00
366.000      6.08552e+00
367.000      5.72796e+00
368.000      5.29394e+00
369.000      4.80663e+00
370.000      4.30134e+00
371.000      3.81870e+00
372.000      3.39558e+00
373.000      3.05676e+00
374.000      2.81009e+00
375.000      2.64675e+00
376.000      2.54671e+00
377.000      2.48760e+00
378.000      2.45362e+00
379.000      2.44163e+00
380.000      2.46172e+00
381.000      2.53219e+00
382.000      2.67045e+00
383.000      2.88336e+00
384.000      3.16047e+00
385.000      3.47308e+00
386.000      3.77955e+00
387.000      4.03517e+00
388.000      4.20303e+00
389.000      4.26227e+00
390.000      4.21116e+00
391.000      4.06445e+00
392.000      3.84674e+00
393.000      3.58451e+00
394.000      3.29957e+00
395.000      3.00567e+00
396.000      2.70863e+00
397.000      2.40909e+00
398.000      2.10625e+00
399.000      1.80130e+00
400.000      1.49916e+00
401.000      1.20829e+00
402.000      9.39033e-01
403.000      7.01097e-01
404.000      5.01353e-01
405.000      3.42537e-01
406.000      2.23155e-01
407.000      1.38405e-01
408.000      8.16201e-02
409.000      4.57193e-02
410.000      2.43060e-02
411.000      1.22562e-02
412.000      5.85882e-03
413.000      2.65396e-03
414.000      1.13886e-03
415.000      4.62829e-04
416.000      1.78097e-04
417.000      6.48793e-05
418.000      2.23723e-05
419.000      7.30167e-06
420.000      2.25530e-06
421.000      6.59215e-07
422.000      1.82333e-07
423.000      4.77201e-08
424.000      1.18173e-08
425.000      2.76888e-09
426.000      6.13831e-10
427.000      1.28749e-10
428.000      2.55496e-11
429.000      4.79692e-12
430.000      8.52072e-13
431.000      1.43193e-13
432.000      2.27664e-14
433.000      3.42448e-15
434.000      4.87327e-16
435.000      6.56098e-17
436.000      8.35679e-18
437.000      1.00701e-18
438.000      1.14801e-19
439.000      1.23816e-20
440.000      1.26337e-21
441.000      1.21955e-22
442.000      1.11376e-23
443.000      9.62279e-25
444.000      7.86554e-26
445.000      6.08239e-27
446.000      4.44977e-28
447.000      3.07978e-29
448.000      2.01660e-30
449.000      1.24922e-31
450.000      7.32104e-33
451.000      4.05907e-34
452.000      2.12911e-35
453.000      1.05654e-36
454.000      4.96013e-38
455.000      2.20301e-39
456.000      9.25675e-41
457.000      3.67975e-42
458.000      1.38387e-43
459.000      4.92368e-45
460.000      1.65730e-46
461.000      5.27755e-48
462.000      1.58994e-49
463.000      4.53153e-51
464.000      1.22188e-52
465.000      3.11694e-54
466.000      7.52223e-56
467.000      1.71744e-57
468.000      3.70967e-59
469.000      7.58065e-61
470.000      1.46553e-62
471.000      2.68041e-64
472.000      4.63793e-66
473.000      7.59217e-68
474.000      1.17578e-69
475.000      1.72267e-71
476.000      2.38779e-73
477.000      3.13117e-75
478.000      3.88451e-77
479.000      4.55914e-79
480.000      5.06230e-81
481.000      5.31777e-83
482.000      5.28481e-85
483.000      4.96874e-87
484.000      4.41959e-89
485.000      3.71907e-91
486.000      2.96077e-93
487.000      2.22993e-95
488.000      1.58890e-97
489.000      1.07108e-99
490.000     6.83063e-102
491.000     4.12115e-104
492.000     2.35231e-106
493.000     1.27025e-108
494.000     6.48931e-111
495.000     3.13637e-113
496.000     1.43408e-115
497.000     6.20350e-118
498.000     2.53874e-120
499.000     9.82917e-123
500.000     3.60026e-125
