# Gaussian folded, width=10 cm^-1
# [cm^-1] arbitrary
0.000      3.00000e+00
1.000      2.91796e+00
2.000      2.68508e+00
3.000      2.33749e+00
4.000      1.92514e+00
5.000      1.50000e+00
6.000      1.10570e+00
7.000      7.71085e-01
8.000      5.08727e-01
9.000      3.17530e-01
10.000      1.87500e-01
11.000      1.04746e-01
12.000      5.53597e-02
13.000      2.76819e-02
14.000      1.31015e-02
15.000      5.88599e-03
16.000      2.56193e-03
17.000      1.22854e-03
18.000      1.02041e-03
19.000      1.80756e-03
20.000      4.16377e-03
21.000      9.62552e-03
22.000      2.12694e-02
23.000      4.46126e-02
24.000      8.87491e-02
25.000      1.67445e-01
26.000      2.99664e-01
27.000      5.08760e-01
28.000      8.19542e-01
29.000      1.25278e+00
30.000      1.81757e+00
31.000      2.50312e+00
32.000      3.27276e+00
33.000      4.06302e+00
34.000      4.79007e+00
35.000      5.36349e+00
36.000      5.70442e+00
37.000      5.76332e+00
38.000      5.53173e+00
39.000      5.04427e+00
40.000      4.37021e+00
41.000      3.59740e+00
42.000      2.81391e+00
43.000      2.09244e+00
44.000      1.48142e+00
45.000      1.00380e+00
46.000      6.62025e-01
47.000      4.46616e-01
48.000      3.45125e-01
49.000      3.49178e-01
50.000      4.58106e-01
51.000      6.78623e-01
52.000      1.02071e+00
53.000      1.49062e+00
54.000      2.08260e+00
55.000      2.77184e+00
56.000      3.51106e+00
57.000      4.23300e+00
58.000      4.85928e+00
59.000      5.31404e+00
60.000      5.53901e+00
61.000      5.50571e+00
62.000      5.22130e+00
63.000      4.72639e+00
64.000      4.08586e+00
65.000      3.37574e+00
66.000      2.66979e+00
67.000      2.02942e+00
68.000      1.49861e+00
69.000      1.10405e+00
70.000      8.58901e-01
71.000      7.67965e-01
72.000      8.31875e-01
73.000      1.04860e+00
74.000      1.41189e+00
75.000      1.90744e+00
76.000      2.50883e+00
77.000      3.17542e+00
78.000      3.85422e+00
79.000      4.48633e+00
80.000      5.01718e+00
81.000      5.40811e+00
82.000      5.64635e+00
83.000      5.75040e+00
84.000      5.76882e+00
85.000      5.77197e+00
86.000      5.83814e+00
87.000      6.03699e+00
88.000      6.41435e+00
89.000      6.98250e+00
90.000      7.71851e+00
91.000      8.57100e+00
92.000      9.47318e+00
93.000      1.03579e+01
94.000      1.11704e+01
95.000      1.18753e+01
96.000      1.24575e+01
97.000      1.29168e+01
98.000      1.32604e+01
99.000      1.34948e+01
100.000      1.36201e+01
101.000      1.36284e+01
102.000      1.35052e+01
103.000      1.32354e+01
104.000      1.28103e+01
105.000      1.22347e+01
106.000      1.15312e+01
107.000      1.07408e+01
108.000      9.91860e+00
109.000      9.12653e+00
110.000      8.42516e+00
111.000      7.86742e+00
112.000      7.49533e+00
113.000      7.33923e+00
114.000      7.41783e+00
115.000      7.73712e+00
116.000      8.28750e+00
117.000      9.04036e+00
118.000      9.94657e+00
119.000      1.09391e+01
120.000      1.19408e+01
121.000      1.28749e+01
122.000      1.36769e+01
123.000      1.43019e+01
124.000      1.47283e+01
125.000      1.49560e+01
126.000      1.50030e+01
127.000      1.49002e+01
128.000      1.46878e+01
129.000      1.44110e+01
130.000      1.41154e+01
131.000      1.38403e+01
132.000      1.36123e+01
133.000      1.34396e+01
134.000      1.33112e+01
135.000      1.32013e+01
136.000      1.30776e+01
137.000      1.29111e+01
138.000      1.26842e+01
139.000      1.23935e+01
140.000      1.20488e+01
141.000      1.16678e+01
142.000      1.12709e+01
143.000      1.08769e+01
144.000      1.05005e+01
145.000      1.01515e+01
146.000      9.83490e+00
147.000      9.55130e+00
148.000      9.29812e+00
149.000      9.07084e+00
150.000      8.86458e+00
151.000      8.67529e+00
152.000      8.49982e+00
153.000      8.33490e+00
154.000      8.17550e+00
155.000      8.01362e+00
156.000      7.83835e+00
157.000      7.63763e+00
158.000      7.40107e+00
159.000      7.12315e+00
160.000      6.80558e+00
161.000      6.45833e+00
162.000      6.09903e+00
163.000      5.75105e+00
164.000      5.44051e+00
165.000      5.19291e+00
166.000      5.02991e+00
167.000      4.96681e+00
168.000      5.01110e+00
169.000      5.16220e+00
170.000      5.41206e+00
171.000      5.74624e+00
172.000      6.14496e+00
173.000      6.58396e+00
174.000      7.03541e+00
175.000      7.46930e+00
176.000      7.85598e+00
177.000      8.16988e+00
178.000      8.39405e+00
179.000      8.52433e+00
180.000      8.57161e+00
181.000      8.56099e+00
182.000      8.52747e+00
183.000      8.50921e+00
184.000      8.54018e+00
185.000      8.64426e+00
186.000      8.83226e+00
187.000      9.10172e+00
188.000      9.43897e+00
189.000      9.82190e+00
190.000      1.02229e+01
191.000      1.06121e+01
192.000      1.09607e+01
193.000      1.12454e+01
194.000      1.14523e+01
195.000      1.15793e+01
196.000      1.16366e+01
197.000      1.16432e+01
198.000      1.16222e+01
199.000      1.15949e+01
200.000      1.15764e+01
201.000      1.15736e+01
202.000      1.15856e+01
203.000      1.16056e+01
204.000      1.16232e+01
205.000      1.16271e+01
206.000      1.16069e+01
207.000      1.15553e+01
208.000      1.14701e+01
209.000      1.13567e+01
210.000      1.12287e+01
211.000      1.11078e+01
212.000      1.10190e+01
213.000      1.09855e+01
214.000      1.10222e+01
215.000      1.11314e+01
216.000      1.13027e+01
217.000      1.15167e+01
218.000      1.17514e+01
219.000      1.19891e+01
220.000      1.22216e+01
221.000      1.24506e+01
222.000      1.26864e+01
223.000      1.29423e+01
224.000      1.32299e+01
225.000      1.35536e+01
226.000      1.39084e+01
227.000      1.42801e+01
228.000      1.46477e+01
229.000      1.49879e+01
230.000      1.52790e+01
231.000      1.55046e+01
232.000      1.56552e+01
233.000      1.57279e+01
234.000      1.57254e+01
235.000      1.56548e+01
236.000      1.55267e+01
237.000      1.53543e+01
238.000      1.51519e+01
239.000      1.49328e+01
240.000      1.47071e+01
241.000      1.44791e+01
242.000      1.42472e+01
243.000      1.40057e+01
244.000      1.37482e+01
245.000      1.34710e+01
246.000      1.31760e+01
247.000      1.28699e+01
248.000      1.25614e+01
249.000      1.22574e+01
250.000      1.19591e+01
251.000      1.16615e+01
252.000      1.13548e+01
253.000      1.10286e+01
254.000      1.06762e+01
255.000      1.02977e+01
256.000      9.90065e+00
257.000      9.49828e+00
258.000      9.10582e+00
259.000      8.73656e+00
260.000      8.39853e+00
261.000      8.09272e+00
262.000      7.81296e+00
263.000      7.54733e+00
264.000      7.28046e+00
265.000      6.99618e+00
266.000      6.68021e+00
267.000      6.32240e+00
268.000      5.91855e+00
269.000      5.47146e+00
270.000      4.99119e+00
271.000      4.49432e+00
272.000      4.00210e+00
273.000      3.53755e+00
274.000      3.12219e+00
275.000      2.77313e+00
276.000      2.50144e+00
277.000      2.31205e+00
278.000      2.20508e+00
279.000      2.17766e+00
280.000      2.22550e+00
281.000      2.34374e+00
282.000      2.52715e+00
283.000      2.77015e+00
284.000      3.06677e+00
285.000      3.41040e+00
286.000      3.79321e+00
287.000      4.20494e+00
288.000      4.63184e+00
289.000      5.05637e+00
290.000      5.45842e+00
291.000      5.81807e+00
292.000      6.11889e+00
293.000      6.35071e+00
294.000      6.51091e+00
295.000      6.60370e+00
296.000      6.63801e+00
297.000      6.62455e+00
298.000      6.57303e+00
299.000      6.48995e+00
300.000      6.37759e+00
301.000      6.23429e+00
302.000      6.05649e+00
303.000      5.84200e+00
304.000      5.59403e+00
305.000      5.32453e+00
306.000      5.05530e+00
307.000      4.81577e+00
308.000      4.63756e+00
309.000      4.54723e+00
310.000      4.55969e+00
311.000      4.67496e+00
312.000      4.87947e+00
313.000      5.15157e+00
314.000      5.46891e+00
315.000      5.81503e+00
316.000      6.18276e+00
317.000      6.57361e+00
318.000      6.99426e+00
319.000      7.45210e+00
320.000      7.95181e+00
321.000      8.49424e+00
322.000      9.07736e+00
323.000      9.69810e+00
324.000      1.03536e+01
325.000      1.10411e+01
326.000      1.17565e+01
327.000      1.24927e+01
328.000      1.32395e+01
329.000      1.39842e+01
330.000      1.47153e+01
331.000      1.54250e+01
332.000      1.61121e+01
333.000      1.67816e+01
334.000      1.74431e+01
335.000      1.81063e+01
336.000      1.87770e+01
337.000      1.94531e+01
338.000      2.01228e+01
339.000      2.07649e+01
340.000      2.13521e+01
341.000      2.18554e+01
342.000      2.22502e+01
343.000      2.25211e+01
344.000      2.26649e+01
345.000      2.26899e+01
346.000      2.26133e+01
347.000      2.24548e+01
348.000      2.22310e+01
349.000      2.19495e+01
350.000      2.16068e+01
351.000      2.11895e+01
352.000      2.06783e+01
353.000      2.00547e+01
354.000      1.93080e+01
355.000      1.84405e+01
356.000      1.74698e+01
357.000      1.64276e+01
358.000      1.53549e+01
359.000      1.42955e+01
360.000      1.32900e+01
361.000      1.23703e+01
362.000      1.15573e+01
363.000      1.08588e+01
364.000      1.02708e+01
365.000      9.77859e+00
366.000      9.35994e+00
367.000      8.98877e+00
368.000      8.63954e+00
369.000      8.29124e+00
370.000      7.93022e+00
371.000      7.55142e+00
372.000      7.15803e+00
373.000      6.75993e+00
374.000      6.37144e+00
375.000      6.00904e+00
376.000      5.68940e+00
377.000      5.42844e+00
378.000      5.24173e+00
379.000      5.14571e+00
380.000      5.15892e+00
381.000      5.30132e+00
382.000      5.59043e+00
383.000      6.03401e+00
384.000      6.62106e+00
385.000      7.31444e+00
386.000      8.04872e+00
387.000      8.73597e+00
388.000      9.27929e+00
389.000      9.59144e+00
390.000      9.61343e+00
391.000      9.32778e+00
392.000      8.76230e+00
393.000      7.98335e+00
394.000      7.08072e+00
395.000      6.14875e+00
396.000      5.26906e+00
397.000      4.49912e+00
398.000      3.86836e+00
399.000      3.38113e+00
400.000      3.02366e+00
401.000      2.77229e+00
402.000      2.60029e+00
403.000      2.48252e+00
404.000      2.39766e+00
405.000      2.32903e+00
406.000      2.26467e+00
407.000      2.19709e+00
408.000      2.12287e+00
409.000      2.04173e+00
410.000      1.95515e+00
411.000      1.86455e+00
412.000      1.76956e+00
413.000      1.66732e+00
414.000      1.55300e+00
415.000      1.42170e+00
416.000      1.27083e+00
417.000      1.10206e+00
418.000      9.21834e-01
419.000      7.40163e-01
420.000      5.68286e-01
421.000      4.16008e-01
422.000      2.89725e-01
423.000      1.91658e-01
424.000      1.20289e-01
425.000      7.15683e-02
426.000      4.03422e-02
427.000      2.15357e-02
428.000      1.08841e-02
429.000      5.20670e-03
430.000      2.35727e-03
431.000      1.00991e-03
432.000      4.09408e-04
433.000      1.57037e-04
434.000      5.69909e-05
435.000      1.95683e-05
436.000      6.35683e-06
437.000      1.95370e-06
438.000      5.68073e-07
439.000      1.56269e-07
440.000      4.06693e-08
441.000      1.00134e-08
442.000      2.33247e-09
443.000      5.14007e-10
444.000      1.07162e-10
445.000      2.11365e-11
446.000      3.94404e-12
447.000      6.96255e-13
448.000      1.16282e-13
449.000      1.83729e-14
450.000      2.74636e-15
451.000      3.88379e-16
452.000      5.19603e-17
453.000      6.57667e-18
454.000      7.87512e-19
455.000      8.92126e-20
456.000      9.56121e-21
457.000      9.69432e-22
458.000      9.29906e-23
459.000      8.43876e-24
460.000      7.24496e-25
461.000      5.88451e-26
462.000      4.52171e-27
463.000      3.28710e-28
464.000      2.26069e-29
465.000      1.47091e-30
466.000      9.05416e-32
467.000      5.27265e-33
468.000      2.90487e-34
469.000      1.51406e-35
470.000      7.46578e-37
471.000      3.48278e-38
472.000      1.53707e-39
473.000      6.41771e-41
474.000      2.53503e-42
475.000      9.47338e-44
476.000      3.34922e-45
477.000      1.12021e-46
478.000      3.54465e-48
479.000      1.06112e-49
480.000      3.00521e-51
481.000      8.05195e-53
482.000      2.04101e-54
483.000      4.89449e-56
484.000      1.11042e-57
485.000      2.38333e-59
486.000      4.83948e-61
487.000      9.29675e-63
488.000      1.68959e-64
489.000      2.90502e-66
490.000      4.72535e-68
491.000      7.27171e-70
492.000      1.05866e-71
493.000      1.45813e-73
494.000      1.89999e-75
495.000      2.34220e-77
496.000      2.73158e-79
497.000      3.01386e-81
498.000      3.14593e-83
499.000      3.10665e-85
500.000      2.90237e-87
