# Gaussian folded, width=10 cm^-1
# [cm^-1] arbitrary
0.000      3.00000e+00
1.000      2.91796e+00
2.000      2.68508e+00
3.000      2.33749e+00
4.000      1.92514e+00
5.000      1.50000e+00
6.000      1.10570e+00
7.000      7.71085e-01
8.000      5.08727e-01
9.000      3.17529e-01
10.000      1.87500e-01
11.000      1.04746e-01
12.000      5.53590e-02
13.000      2.76795e-02
14.000      1.30932e-02
15.000      5.85951e-03
16.000      2.48120e-03
17.000      9.95392e-04
18.000      3.82560e-04
19.000      1.54429e-04
20.000      1.05042e-04
21.000      1.85837e-04
22.000      4.73096e-04
23.000      1.21822e-03
24.000      2.99789e-03
25.000      7.00529e-03
26.000      1.55362e-02
27.000      3.27080e-02
28.000      6.53843e-02
29.000      1.24147e-01
30.000      2.23966e-01
31.000      3.84026e-01
32.000      6.26070e-01
33.000      9.70792e-01
34.000      1.43227e+00
35.000      2.01128e+00
36.000      2.68915e+00
37.000      3.42441e+00
38.000      4.15438e+00
39.000      4.80257e+00
40.000      5.29136e+00
41.000      5.55696e+00
42.000      5.56297e+00
43.000      5.30849e+00
44.000      4.82830e+00
45.000      4.18520e+00
46.000      3.45661e+00
47.000      2.71952e+00
48.000      2.03759e+00
49.000      1.45345e+00
50.000      9.86807e-01
51.000      6.37696e-01
52.000      3.92663e-01
53.000      2.31660e-01
54.000      1.33977e-01
55.000      8.23773e-02
56.000      6.54286e-02
57.000      7.84500e-02
58.000      1.23578e-01
59.000      2.09216e-01
60.000      3.48823e-01
61.000      5.58780e-01
62.000      8.55100e-01
63.000      1.24905e+00
64.000      1.74224e+00
65.000      2.32232e+00
66.000      2.96051e+00
67.000      3.61237e+00
68.000      4.22203e+00
69.000      4.72973e+00
70.000      5.08119e+00
71.000      5.23680e+00
72.000      5.17864e+00
73.000      4.91384e+00
74.000      4.47337e+00
75.000      3.90683e+00
76.000      3.27429e+00
77.000      2.63714e+00
78.000      2.04994e+00
79.000      1.55474e+00
80.000      1.17872e+00
81.000      9.34799e-01
82.000      8.24401e-01
83.000      8.40901e-01
84.000      9.72856e-01
85.000      1.20621e+00
86.000      1.52531e+00
87.000      1.91284e+00
88.000      2.34896e+00
89.000      2.81022e+00
90.000      3.26891e+00
91.000      3.69372e+00
92.000      4.05240e+00
93.000      4.31625e+00
94.000      4.46585e+00
95.000      4.49629e+00
96.000      4.42034e+00
97.000      4.26845e+00
98.000      4.08557e+00
99.000      3.92538e+00
100.000      3.84327e+00
101.000      3.88902e+00
102.000      4.10001e+00
103.000      4.49550e+00
104.000      5.07270e+00
105.000      5.80543e+00
106.000      6.64654e+00
107.000      7.53422e+00
108.000      8.40180e+00
109.000      9.18920e+00
110.000      9.85338e+00
111.000      1.03750e+01
112.000      1.07591e+01
113.000      1.10296e+01
114.000      1.12186e+01
115.000      1.13535e+01
116.000      1.14468e+01
117.000      1.14909e+01
118.000      1.14605e+01
119.000      1.13220e+01
120.000      1.10471e+01
121.000      1.06254e+01
122.000      1.00725e+01
123.000      9.42988e+00
124.000      8.75774e+00
125.000      8.12256e+00
126.000      7.58400e+00
127.000      7.18481e+00
128.000      6.94582e+00
129.000      6.86604e+00
130.000      6.92632e+00
131.000      7.09458e+00
132.000      7.33157e+00
133.000      7.59641e+00
134.000      7.85229e+00
135.000      8.07218e+00
136.000      8.24372e+00
137.000      8.37184e+00
138.000      8.47749e+00
139.000      8.59172e+00
140.000      8.74629e+00
141.000      8.96323e+00
142.000      9.24697e+00
143.000      9.58166e+00
144.000      9.93477e+00
145.000      1.02655e+01
146.000      1.05351e+01
147.000      1.07161e+01
148.000      1.07977e+01
149.000      1.07867e+01
150.000      1.07043e+01
151.000      1.05814e+01
152.000      1.04518e+01
153.000      1.03470e+01
154.000      1.02921e+01
155.000      1.03027e+01
156.000      1.03842e+01
157.000      1.05315e+01
158.000      1.07309e+01
159.000      1.09622e+01
160.000      1.12018e+01
161.000      1.14252e+01
162.000      1.16093e+01
163.000      1.17337e+01
164.000      1.17822e+01
165.000      1.17427e+01
166.000      1.16067e+01
167.000      1.13696e+01
168.000      1.10296e+01
169.000      1.05878e+01
170.000      1.00493e+01
171.000      9.42388e+00
172.000      8.72753e+00
173.000      7.98293e+00
174.000      7.21876e+00
175.000      6.46742e+00
176.000      5.76178e+00
177.000      5.13196e+00
178.000      4.60312e+00
179.000      4.19454e+00
180.000      3.91976e+00
181.000      3.78661e+00
182.000      3.79626e+00
183.000      3.94115e+00
184.000      4.20245e+00
185.000      4.54865e+00
186.000      4.93686e+00
187.000      5.31761e+00
188.000      5.64264e+00
189.000      5.87396e+00
190.000      5.99146e+00
191.000      5.99672e+00
192.000      5.91158e+00
193.000      5.77176e+00
194.000      5.61775e+00
195.000      5.48574e+00
196.000      5.40155e+00
197.000      5.37848e+00
198.000      5.41882e+00
199.000      5.51678e+00
200.000      5.66109e+00
201.000      5.83605e+00
202.000      6.02138e+00
203.000      6.19220e+00
204.000      6.32051e+00
205.000      6.37878e+00
206.000      6.34505e+00
207.000      6.20815e+00
208.000      5.97118e+00
209.000      5.65194e+00
210.000      5.27993e+00
211.000      4.89021e+00
212.000      4.51588e+00
213.000      4.18109e+00
214.000      3.89641e+00
215.000      3.65785e+00
216.000      3.44958e+00
217.000      3.24936e+00
218.000      3.03504e+00
219.000      2.79023e+00
220.000      2.50800e+00
221.000      2.19185e+00
222.000      1.85411e+00
223.000      1.51266e+00
224.000      1.18675e+00
225.000      8.93175e-01
226.000      6.43557e-01
227.000      4.43147e-01
228.000      2.91180e-01
229.000      1.82330e-01
230.000      1.08679e-01
231.000      6.16034e-02
232.000      3.31796e-02
233.000      1.69683e-02
234.000      8.23468e-03
235.000      3.79034e-03
236.000      1.65405e-03
237.000      6.84077e-04
238.000      2.68052e-04
239.000      9.94908e-05
240.000      3.49710e-05
241.000      1.16391e-05
242.000      3.66741e-06
243.000      1.09389e-06
244.000      3.08828e-07
245.000      8.25195e-08
246.000      2.08674e-08
247.000      4.99486e-09
248.000      1.13803e-09
249.000      2.81193e-10
250.000      2.46740e-10
251.000      9.59417e-10
252.000      4.32250e-09
253.000      1.85930e-08
254.000      7.56937e-08
255.000      2.91552e-07
256.000      1.06246e-06
257.000      3.66316e-06
258.000      1.19494e-05
259.000      3.68800e-05
260.000      1.07696e-04
261.000      2.97563e-04
262.000      7.77947e-04
263.000      1.92459e-03
264.000      4.50584e-03
265.000      9.98428e-03
266.000      2.09428e-02
267.000      4.15942e-02
268.000      7.82472e-02
269.000      1.39496e-01
270.000      2.35845e-01
271.000      3.78546e-01
272.000      5.77661e-01
273.000      8.39796e-01
274.000      1.16634e+00
275.000      1.55312e+00
276.000      1.99203e+00
277.000      2.47405e+00
278.000      2.99222e+00
279.000      3.54224e+00
280.000      4.11950e+00
281.000      4.71282e+00
282.000      5.29789e+00
283.000      5.83476e+00
284.000      6.27299e+00
285.000      6.56528e+00
286.000      6.68614e+00
287.000      6.64897e+00
288.000      6.51430e+00
289.000      6.38425e+00
290.000      6.38334e+00
291.000      6.63039e+00
292.000      7.20965e+00
293.000      8.14922e+00
294.000      9.41243e+00
295.000      1.09035e+01
296.000      1.24848e+01
297.000      1.40002e+01
298.000      1.52989e+01
299.000      1.62550e+01
300.000      1.67817e+01
301.000      1.68403e+01
302.000      1.64452e+01
303.000      1.56654e+01
304.000      1.46200e+01
305.000      1.34655e+01
306.000      1.23746e+01
307.000      1.15072e+01
308.000      1.09793e+01
309.000      1.08389e+01
310.000      1.10550e+01
311.000      1.15253e+01
312.000      1.21002e+01
313.000      1.26181e+01
314.000      1.29441e+01
315.000      1.30010e+01
316.000      1.27871e+01
317.000      1.23778e+01
318.000      1.19096e+01
319.000      1.15530e+01
320.000      1.14788e+01
321.000      1.18275e+01
322.000      1.26862e+01
323.000      1.40795e+01
324.000      1.59717e+01
325.000      1.82791e+01
326.000      2.08847e+01
327.000      2.36510e+01
328.000      2.64295e+01
329.000      2.90669e+01
330.000      3.14115e+01
331.000      3.33234e+01
332.000      3.46887e+01
333.000      3.54344e+01
334.000      3.55410e+01
335.000      3.50475e+01
336.000      3.40464e+01
337.000      3.26703e+01
338.000      3.10718e+01
339.000      2.94040e+01
340.000      2.78031e+01
341.000      2.63774e+01
342.000      2.52029e+01
343.000      2.43243e+01
344.000      2.37595e+01
345.000      2.35053e+01
346.000      2.35432e+01
347.000      2.38429e+01
348.000      2.43648e+01
349.000      2.50599e+01
350.000      2.58699e+01
351.000      2.67277e+01
352.000      2.75604e+01
353.000      2.82947e+01
354.000      2.88649e+01
355.000      2.92195e+01
356.000      2.93265e+01
357.000      2.91737e+01
358.000      2.87643e+01
359.000      2.81098e+01
360.000      2.72225e+01
361.000      2.61103e+01
362.000      2.47778e+01
363.000      2.32304e+01
364.000      2.14833e+01
365.000      1.95684e+01
366.000      1.75389e+01
367.000      1.54680e+01
368.000      1.34430e+01
369.000      1.15546e+01
370.000      9.88579e+00
371.000      8.50171e+00
372.000      7.44249e+00
373.000      6.72020e+00
374.000      6.32031e+00
375.000      6.20733e+00
376.000      6.33371e+00
377.000      6.65072e+00
378.000      7.11948e+00
379.000      7.71950e+00
380.000      8.45243e+00
381.000      9.33861e+00
382.000      1.04063e+01
383.000      1.16754e+01
384.000      1.31416e+01
385.000      1.47658e+01
386.000      1.64757e+01
387.000      1.81798e+01
388.000      1.97885e+01
389.000      2.12349e+01
390.000      2.24844e+01
391.000      2.35292e+01
392.000      2.43692e+01
393.000      2.49886e+01
394.000      2.53405e+01
395.000      2.53466e+01
396.000      2.49156e+01
397.000      2.39723e+01
398.000      2.24872e+01
399.000      2.04958e+01
400.000      1.81014e+01
401.000      1.54603e+01
402.000      1.27555e+01
403.000      1.01662e+01
404.000      7.84112e+00
405.000      5.88103e+00
406.000      4.33203e+00
407.000      3.18961e+00
408.000      2.41019e+00
409.000      1.92679e+00
410.000      1.66513e+00
411.000      1.55702e+00
412.000      1.54914e+00
413.000      1.60600e+00
414.000      1.70769e+00
415.000      1.84414e+00
416.000      2.00841e+00
417.000      2.19178e+00
418.000      2.38212e+00
419.000      2.56566e+00
420.000      2.73043e+00
421.000      2.86916e+00
422.000      2.97981e+00
423.000      3.06339e+00
424.000      3.12038e+00
425.000      3.14767e+00
426.000      3.13778e+00
427.000      3.08067e+00
428.000      2.96729e+00
429.000      2.79334e+00
430.000      2.56171e+00
431.000      2.28302e+00
432.000      1.97441e+00
433.000      1.65718e+00
434.000      1.35403e+00
435.000      1.08637e+00
436.000      8.71941e-01
437.000      7.22819e-01
438.000      6.43942e-01
439.000      6.32202e-01
440.000      6.76378e-01
441.000      7.58154e-01
442.000      8.54427e-01
443.000      9.40829e-01
444.000      9.95919e-01
445.000      1.00510e+00
446.000      9.63192e-01
447.000      8.74762e-01
448.000      7.52217e-01
449.000      6.12186e-01
450.000      4.71434e-01
451.000      3.43491e-01
452.000      2.36780e-01
453.000      1.54419e-01
454.000      9.52748e-02
455.000      5.56128e-02
456.000      3.07108e-02
457.000      1.60444e-02
458.000      7.93005e-03
459.000      3.70804e-03
460.000      1.64033e-03
461.000      6.86493e-04
462.000      2.71806e-04
463.000      1.01812e-04
464.000      3.60791e-05
465.000      1.20957e-05
466.000      3.83639e-06
467.000      1.15115e-06
468.000      3.26784e-07
469.000      8.77618e-08
470.000      2.22981e-08
471.000      5.35980e-09
472.000      1.21884e-09
473.000      2.62218e-10
474.000      5.33698e-11
475.000      1.02765e-11
476.000      1.87204e-12
477.000      3.22627e-13
478.000      5.26023e-14
479.000      8.11383e-15
480.000      1.18404e-15
481.000      1.63464e-16
482.000      2.13499e-17
483.000      2.63807e-18
484.000      3.08387e-19
485.000      3.41054e-20
486.000      3.56835e-21
487.000      3.53207e-22
488.000      3.30757e-23
489.000      2.93026e-24
490.000      2.45596e-25
491.000      1.94739e-26
492.000      1.46084e-27
493.000      1.03674e-28
494.000      6.96076e-30
495.000      4.42140e-31
496.000      2.65693e-32
497.000      1.51049e-33
498.000      8.12407e-35
499.000      4.13378e-36
500.000      1.98993e-37
