# Gaussian folded, width=10 cm^-1
# [cm^-1] arbitrary
0.000      3.00000e+00
1.000      2.91796e+00
2.000      2.68508e+00
3.000      2.33749e+00
4.000      1.92514e+00
5.000      1.50000e+00
6.000      1.10570e+00
7.000      7.71085e-01
8.000      5.08727e-01
9.000      3.17530e-01
10.000      1.87503e-01
11.000      1.04756e-01
12.000      5.53931e-02
13.000      2.77830e-02
14.000      1.33915e-02
15.000      6.67371e-03
16.000      4.58670e-03
17.000      6.15378e-03
18.000      1.23562e-02
19.000      2.64879e-02
20.000      5.49792e-02
21.000      1.08531e-01
22.000      2.03162e-01
23.000      3.60468e-01
24.000      6.06201e-01
25.000      9.66291e-01
26.000      1.46001e+00
27.000      2.09112e+00
28.000      2.83916e+00
29.000      3.65427e+00
30.000      4.45883e+00
31.000      5.15772e+00
32.000      5.65607e+00
33.000      5.88025e+00
34.000      5.79571e+00
35.000      5.41578e+00
36.000      4.79852e+00
37.000      4.03270e+00
38.000      3.21790e+00
39.000      2.44536e+00
40.000      1.78486e+00
41.000      1.28044e+00
42.000      9.53838e-01
43.000      8.12262e-01
44.000      8.56271e-01
45.000      1.08402e+00
46.000      1.49029e+00
47.000      2.06075e+00
48.000      2.76425e+00
49.000      3.54690e+00
50.000      4.33183e+00
51.000      5.02685e+00
52.000      5.53949e+00
53.000      5.79570e+00
54.000      5.75666e+00
55.000      5.42816e+00
56.000      4.85917e+00
57.000      4.13020e+00
58.000      3.33532e+00
59.000      2.56370e+00
60.000      1.88600e+00
61.000      1.34852e+00
62.000      9.75109e-01
63.000      7.74013e-01
64.000      7.45978e-01
65.000      8.89934e-01
66.000      1.20416e+00
67.000      1.68273e+00
68.000      2.30907e+00
69.000      3.04975e+00
70.000      3.85243e+00
71.000      4.65039e+00
72.000      5.37444e+00
73.000      5.96949e+00
74.000      6.41096e+00
75.000      6.71492e+00
76.000      6.93752e+00
77.000      7.16256e+00
78.000      7.48031e+00
79.000      7.96397e+00
80.000      8.65128e+00
81.000      9.53661e+00
82.000      1.05754e+01
83.000      1.16982e+01
84.000      1.28283e+01
85.000      1.38971e+01
86.000      1.48514e+01
87.000      1.56528e+01
88.000      1.62713e+01
89.000      1.66779e+01
90.000      1.68416e+01
91.000      1.67332e+01
92.000      1.63354e+01
93.000      1.56533e+01
94.000      1.47233e+01
95.000      1.36130e+01
96.000      1.24142e+01
97.000      1.12303e+01
98.000      1.01615e+01
99.000      9.29318e+00
100.000      8.68853e+00
101.000      8.38572e+00
102.000      8.39862e+00
103.000      8.71897e+00
104.000      9.31864e+00
105.000      1.01519e+01
106.000      1.11581e+01
107.000      1.22658e+01
108.000      1.33993e+01
109.000      1.44864e+01
110.000      1.54670e+01
111.000      1.63005e+01
112.000      1.69682e+01
113.000      1.74713e+01
114.000      1.78229e+01
115.000      1.80389e+01
116.000      1.81286e+01
117.000      1.80909e+01
118.000      1.79172e+01
119.000      1.75998e+01
120.000      1.71430e+01
121.000      1.65717e+01
122.000      1.59341e+01
123.000      1.52951e+01
124.000      1.47236e+01
125.000      1.42758e+01
126.000      1.39816e+01
127.000      1.38387e+01
128.000      1.38141e+01
129.000      1.38544e+01
130.000      1.38995e+01
131.000      1.38949e+01
132.000      1.38013e+01
133.000      1.35979e+01
134.000      1.32807e+01
135.000      1.28580e+01
136.000      1.23457e+01
137.000      1.17624e+01
138.000      1.11274e+01
139.000      1.04593e+01
140.000      9.77598e+00
141.000      9.09349e+00
142.000      8.42567e+00
143.000      7.78301e+00
144.000      7.17222e+00
145.000      6.59653e+00
146.000      6.05645e+00
147.000      5.55063e+00
148.000      5.07630e+00
149.000      4.62918e+00
150.000      4.20361e+00
151.000      3.79355e+00
152.000      3.39502e+00
153.000      3.00948e+00
154.000      2.64718e+00
155.000      2.32870e+00
156.000      2.08376e+00
157.000      1.94714e+00
158.000      1.95258e+00
159.000      2.12622e+00
160.000      2.48113e+00
161.000      3.01362e+00
162.000      3.70192e+00
163.000      4.50718e+00
164.000      5.37715e+00
165.000      6.25314e+00
166.000      7.08050e+00
167.000      7.82179e+00
168.000      8.46931e+00
169.000      9.05238e+00
170.000      9.63417e+00
171.000      1.02960e+01
172.000      1.11118e+01
173.000      1.21200e+01
174.000      1.33038e+01
175.000      1.45875e+01
176.000      1.58524e+01
177.000      1.69671e+01
178.000      1.78221e+01
179.000      1.83584e+01
180.000      1.85800e+01
181.000      1.85478e+01
182.000      1.83590e+01
183.000      1.81175e+01
184.000      1.79046e+01
185.000      1.77589e+01
186.000      1.76706e+01
187.000      1.75927e+01
188.000      1.74668e+01
189.000      1.72572e+01
190.000      1.69804e+01
191.000      1.67198e+01
192.000      1.66187e+01
193.000      1.68488e+01
194.000      1.75648e+01
195.000      1.88558e+01
196.000      2.07115e+01
197.000      2.30125e+01
198.000      2.55492e+01
199.000      2.80632e+01
200.000      3.02986e+01
201.000      3.20481e+01
202.000      3.31827e+01
203.000      3.36604e+01
204.000      3.35147e+01
205.000      3.28327e+01
206.000      3.17281e+01
207.000      3.03192e+01
208.000      2.87120e+01
209.000      2.69913e+01
210.000      2.52173e+01
211.000      2.34293e+01
212.000      2.16533e+01
213.000      1.99113e+01
214.000      1.82293e+01
215.000      1.66396e+01
216.000      1.51756e+01
217.000      1.38619e+01
218.000      1.27033e+01
219.000      1.16795e+01
220.000      1.07488e+01
221.000      9.86061e+00
222.000      8.97285e+00
223.000      8.06929e+00
224.000      7.17013e+00
225.000      6.33340e+00
226.000      5.64643e+00
227.000      5.20988e+00
228.000      5.11816e+00
229.000      5.44054e+00
230.000      6.20654e+00
231.000      7.39843e+00
232.000      8.95202e+00
233.000      1.07659e+01
234.000      1.27171e+01
235.000      1.46806e+01
236.000      1.65480e+01
237.000      1.82410e+01
238.000      1.97187e+01
239.000      2.09752e+01
240.000      2.20311e+01
241.000      2.29208e+01
242.000      2.36788e+01
243.000      2.43276e+01
244.000      2.48700e+01
245.000      2.52850e+01
246.000      2.55293e+01
247.000      2.55436e+01
248.000      2.52627e+01
249.000      2.46292e+01
250.000      2.36074e+01
251.000      2.21953e+01
252.000      2.04307e+01
253.000      1.83900e+01
254.000      1.61791e+01
255.000      1.39181e+01
256.000      1.17242e+01
257.000      9.69674e+00
258.000      7.90898e+00
259.000      6.40672e+00
260.000      5.21335e+00
261.000      4.33755e+00
262.000      3.78044e+00
263.000      3.53976e+00
264.000      3.61091e+00
265.000      3.98605e+00
266.000      4.65303e+00
267.000      5.59523e+00
268.000      6.79221e+00
269.000      8.22010e+00
270.000      9.85053e+00
271.000      1.16478e+01
272.000      1.35652e+01
273.000      1.55423e+01
274.000      1.75050e+01
275.000      1.93700e+01
276.000      2.10526e+01
277.000      2.24751e+01
278.000      2.35750e+01
279.000      2.43088e+01
280.000      2.46521e+01
281.000      2.45969e+01
282.000      2.41480e+01
283.000      2.33218e+01
284.000      2.21469e+01
285.000      2.06675e+01
286.000      1.89467e+01
287.000      1.70680e+01
288.000      1.51315e+01
289.000      1.32445e+01
290.000      1.15080e+01
291.000      1.00011e+01
292.000      8.76823e+00
293.000      7.81390e+00
294.000      7.10604e+00
295.000      6.58804e+00
296.000      6.19516e+00
297.000      5.87034e+00
298.000      5.57447e+00
299.000      5.28903e+00
300.000      5.01165e+00
301.000      4.74776e+00
302.000      4.50247e+00
303.000      4.27588e+00
304.000      4.06301e+00
305.000      3.85754e+00
306.000      3.65674e+00
307.000      3.46505e+00
308.000      3.29447e+00
309.000      3.16146e+00
310.000      3.08174e+00
311.000      3.06497e+00
312.000      3.11108e+00
313.000      3.20953e+00
314.000      3.34143e+00
315.000      3.48364e+00
316.000      3.61357e+00
317.000      3.71322e+00
318.000      3.77157e+00
319.000      3.78447e+00
320.000      3.75271e+00
321.000      3.67893e+00
322.000      3.56515e+00
323.000      3.41204e+00
324.000      3.22031e+00
325.000      2.99358e+00
326.000      2.74081e+00
327.000      2.47664e+00
328.000      2.21883e+00
329.000      1.98352e+00
330.000      1.78041e+00
331.000      1.60992e+00
332.000      1.46374e+00
333.000      1.32857e+00
334.000      1.19140e+00
335.000      1.04407e+00
336.000      8.85649e-01
337.000      7.21844e-01
338.000      5.62309e-01
339.000      4.17149e-01
340.000      2.94007e-01
341.000      1.96564e-01
342.000      1.24538e-01
343.000      7.47279e-02
344.000      4.24495e-02
345.000      2.28225e-02
346.000      1.16115e-02
347.000      5.58989e-03
348.000      2.54613e-03
349.000      1.09725e-03
350.000      4.47369e-04
351.000      1.72566e-04
352.000      6.29753e-05
353.000      2.17423e-05
354.000      7.10172e-06
355.000      2.19452e-06
356.000      6.41556e-07
357.000      1.77439e-07
358.000      4.64279e-08
359.000      1.14929e-08
360.000      2.69151e-09
361.000      5.96322e-10
362.000      1.24992e-10
363.000      2.47858e-11
364.000      4.64987e-12
365.000      8.25271e-13
366.000      1.38570e-13
367.000      2.20120e-14
368.000      3.30802e-15
369.000      4.70321e-16
370.000      6.32612e-17
371.000      8.05005e-18
372.000      9.69119e-19
373.000      1.10376e-19
374.000      1.18929e-20
375.000      1.21232e-21
376.000      1.16914e-22
377.000      1.06668e-23
378.000      9.20701e-25
379.000      7.51831e-26
380.000      5.80818e-27
381.000      4.24499e-28
382.000      2.93516e-29
383.000      1.92001e-30
384.000      1.18821e-31
385.000      6.95666e-33
386.000      3.85324e-34
387.000      2.01915e-35
388.000      1.00099e-36
389.000      4.69469e-38
390.000      2.08306e-39
391.000      8.74410e-41
392.000      3.47253e-42
393.000      1.30465e-43
394.000      4.63724e-45
395.000      1.55935e-46
396.000      4.96072e-48
397.000      1.49301e-49
398.000      4.25108e-51
399.000      1.14513e-52
400.000      2.91826e-54
401.000      7.03580e-56
402.000      1.60480e-57
403.000      3.46294e-59
404.000      7.06946e-61
405.000      1.36536e-62
406.000      2.49473e-64
407.000      4.31238e-66
408.000      7.05228e-68
409.000      1.09109e-69
410.000      1.59701e-71
411.000      2.21142e-73
412.000      2.89704e-75
413.000      3.59050e-77
414.000      4.20991e-79
415.000      4.66991e-81
416.000      4.90074e-83
417.000      4.86555e-85
418.000      4.57004e-87
419.000      4.06093e-89
420.000      3.41389e-91
421.000      2.71513e-93
422.000      2.04291e-95
423.000      1.45420e-97
424.000     9.79308e-100
425.000     6.23923e-102
426.000     3.76062e-104
427.000     2.14440e-106
428.000     1.15683e-108
429.000     5.90408e-111
430.000     2.85070e-113
431.000     1.30217e-115
432.000     5.62735e-118
433.000     2.30068e-120
434.000     8.89868e-123
435.000     3.25622e-125
436.000     1.12724e-127
437.000     3.69182e-130
438.000     1.14388e-132
439.000     3.35304e-135
440.000     9.29853e-138
441.000     2.43954e-140
442.000     6.05506e-143
443.000     1.42183e-145
444.000     3.15858e-148
445.000     6.63828e-151
446.000     1.31989e-153
447.000     2.48276e-156
448.000     4.41826e-159
449.000     7.43850e-162
450.000     1.18478e-164
451.000     1.78528e-167
452.000     2.54503e-170
453.000     3.43239e-173
454.000     4.37944e-176
455.000     5.28638e-179
456.000     6.03692e-182
457.000     6.52214e-185
458.000     6.66626e-188
459.000     6.44603e-191
460.000     5.89684e-194
461.000     5.10346e-197
462.000     4.17857e-200
463.000     3.23674e-203
464.000     2.37195e-206
465.000     1.64445e-209
466.000     1.07858e-212
467.000     6.69275e-216
468.000     3.92892e-219
469.000     2.18202e-222
470.000     1.14647e-225
471.000     5.69880e-229
472.000     2.67992e-232
473.000     1.19228e-235
474.000     5.01825e-239
475.000     1.99822e-242
476.000     7.52753e-246
477.000     2.68274e-249
478.000     9.04531e-253
479.000     2.88526e-256
480.000     8.70692e-260
481.000     2.48577e-263
482.000     6.71392e-267
483.000     1.71557e-270
484.000     4.14723e-274
485.000     9.48475e-278
486.000     2.05216e-281
487.000     4.20062e-285
488.000     8.13456e-289
489.000     1.49029e-292
490.000     2.58302e-296
491.000     4.23546e-300
492.000     6.57039e-304
493.000     9.64272e-308
494.000     1.33883e-311
495.000     1.75861e-315
496.000     2.18540e-319
497.000     2.47033e-323
498.000      0.00000e+00
499.000      0.00000e+00
500.000      0.00000e+00
