# Gaussian folded, width=10 cm^-1
# [cm^-1] arbitrary
0.000      3.00000e+00
1.000      2.91796e+00
2.000      2.68508e+00
3.000      2.33749e+00
4.000      1.92514e+00
5.000      1.50000e+00
6.000      1.10570e+00
7.000      7.71085e-01
8.000      5.08727e-01
9.000      3.17529e-01
10.000      1.87500e-01
11.000      1.04746e-01
12.000      5.53591e-02
13.000      2.76798e-02
14.000      1.30942e-02
15.000      5.86288e-03
16.000      2.49232e-03
17.000      1.03006e-03
18.000      4.84886e-04
19.000      4.40382e-04
20.000      8.61543e-04
21.000      2.08041e-03
22.000      4.96439e-03
23.000      1.12956e-02
24.000      2.43959e-02
25.000      4.99962e-02
26.000      9.72396e-02
27.000      1.79537e-01
28.000      3.14775e-01
29.000      5.24236e-01
30.000      8.29641e-01
31.000      1.24812e+00
32.000      1.78566e+00
33.000      2.43055e+00
34.000      3.14890e+00
35.000      3.88462e+00
36.000      4.56518e+00
37.000      5.11281e+00
38.000      5.45896e+00
39.000      5.55829e+00
40.000      5.39828e+00
41.000      5.00176e+00
42.000      4.42153e+00
43.000      3.72904e+00
44.000      3.00023e+00
45.000      2.30245e+00
46.000      1.68539e+00
47.000      1.17748e+00
48.000      7.87387e-01
49.000      5.09226e-01
50.000      3.29350e-01
51.000      2.32900e-01
52.000      2.08851e-01
53.000      2.52930e-01
54.000      3.68231e-01
55.000      5.63657e-01
56.000      8.50466e-01
57.000      1.23738e+00
58.000      1.72509e+00
59.000      2.30130e+00
60.000      2.93770e+00
61.000      3.59014e+00
62.000      4.20261e+00
63.000      4.71471e+00
64.000      5.07126e+00
65.000      5.23181e+00
66.000      5.17800e+00
67.000      4.91683e+00
68.000      4.47927e+00
69.000      3.91465e+00
70.000      3.28234e+00
71.000      2.64273e+00
72.000      2.04957e+00
73.000      1.54515e+00
74.000      1.15885e+00
75.000      9.08522e-01
76.000      8.03441e-01
77.000      8.46936e-01
78.000      1.03743e+00
79.000      1.36723e+00
80.000      1.81977e+00
81.000      2.36690e+00
82.000      2.96828e+00
83.000      3.57434e+00
84.000      4.13289e+00
85.000      4.59816e+00
86.000      4.93940e+00
87.000      5.14686e+00
88.000      5.23322e+00
89.000      5.23061e+00
90.000      5.18449e+00
91.000      5.14626e+00
92.000      5.16631e+00
93.000      5.28814e+00
94.000      5.54376e+00
95.000      5.95010e+00
96.000      6.50657e+00
97.000      7.19430e+00
98.000      7.97756e+00
99.000      8.80782e+00
100.000      9.63014e+00
101.000      1.03907e+01
102.000      1.10444e+01
103.000      1.15599e+01
104.000      1.19228e+01
105.000      1.21338e+01
106.000      1.22054e+01
107.000      1.21551e+01
108.000      1.20002e+01
109.000      1.17539e+01
110.000      1.14247e+01
111.000      1.10197e+01
112.000      1.05483e+01
113.000      1.00276e+01
114.000      9.48339e+00
115.000      8.94982e+00
116.000      8.46489e+00
117.000      8.06533e+00
118.000      7.78151e+00
119.000      7.63398e+00
120.000      7.63200e+00
121.000      7.77343e+00
122.000      8.04551e+00
123.000      8.42593e+00
124.000      8.88434e+00
125.000      9.38478e+00
126.000      9.88936e+00
127.000      1.03632e+01
128.000      1.07795e+01
129.000      1.11238e+01
130.000      1.13952e+01
131.000      1.16047e+01
132.000      1.17699e+01
133.000      1.19085e+01
134.000      1.20320e+01
135.000      1.21417e+01
136.000      1.22277e+01
137.000      1.22723e+01
138.000      1.22545e+01
139.000      1.21561e+01
140.000      1.19672e+01
141.000      1.16900e+01
142.000      1.13401e+01
143.000      1.09455e+01
144.000      1.05426e+01
145.000      1.01715e+01
146.000      9.86888e+00
147.000      9.66246e+00
148.000      9.56636e+00
149.000      9.57904e+00
150.000      9.68432e+00
151.000      9.85491e+00
152.000      1.00580e+01
153.000      1.02608e+01
154.000      1.04360e+01
155.000      1.05639e+01
156.000      1.06331e+01
157.000      1.06388e+01
158.000      1.05797e+01
159.000      1.04560e+01
160.000      1.02672e+01
161.000      1.00124e+01
162.000      9.69063e+00
163.000      9.30233e+00
164.000      8.85053e+00
165.000      8.34199e+00
166.000      7.78796e+00
167.000      7.20468e+00
168.000      6.61327e+00
169.000      6.03905e+00
170.000      5.51013e+00
171.000      5.05525e+00
172.000      4.70106e+00
173.000      4.46876e+00
174.000      4.37090e+00
175.000      4.40892e+00
176.000      4.57248e+00
177.000      4.84118e+00
178.000      5.18859e+00
179.000      5.58728e+00
180.000      6.01333e+00
181.000      6.44873e+00
182.000      6.88087e+00
183.000      7.29974e+00
184.000      7.69433e+00
185.000      8.05014e+00
186.000      8.34931e+00
187.000      8.57341e+00
188.000      8.70831e+00
189.000      8.74891e+00
190.000      8.70208e+00
191.000      8.58629e+00
192.000      8.42797e+00
193.000      8.25586e+00
194.000      8.09513e+00
195.000      7.96328e+00
196.000      7.86863e+00
197.000      7.81111e+00
198.000      7.78436e+00
199.000      7.77804e+00
200.000      7.77966e+00
201.000      7.77622e+00
202.000      7.75611e+00
203.000      7.71151e+00
204.000      7.64055e+00
205.000      7.54844e+00
206.000      7.44671e+00
207.000      7.35027e+00
208.000      7.27342e+00
209.000      7.22590e+00
210.000      7.21042e+00
211.000      7.22225e+00
212.000      7.25098e+00
213.000      7.28359e+00
214.000      7.30832e+00
215.000      7.31812e+00
216.000      7.31295e+00
217.000      7.30034e+00
218.000      7.29390e+00
219.000      7.30991e+00
220.000      7.36266e+00
221.000      7.45967e+00
222.000      7.59788e+00
223.000      7.76224e+00
224.000      7.92744e+00
225.000      8.06293e+00
226.000      8.14023e+00
227.000      8.14075e+00
228.000      8.06172e+00
229.000      7.91836e+00
230.000      7.74137e+00
231.000      7.57036e+00
232.000      7.44504e+00
233.000      7.39655e+00
234.000      7.44129e+00
235.000      7.57848e+00
236.000      7.79175e+00
237.000      8.05380e+00
238.000      8.33245e+00
239.000      8.59643e+00
240.000      8.81945e+00
241.000      8.98207e+00
242.000      9.07167e+00
243.000      9.08164e+00
244.000      9.01063e+00
245.000      8.86266e+00
246.000      8.64772e+00
247.000      8.38188e+00
248.000      8.08582e+00
249.000      7.78115e+00
250.000      7.48519e+00
251.000      7.20588e+00
252.000      6.93918e+00
253.000      6.67028e+00
254.000      6.37886e+00
255.000      6.04658e+00
256.000      5.66405e+00
257.000      5.23490e+00
258.000      4.77535e+00
259.000      4.31015e+00
260.000      3.86649e+00
261.000      3.46849e+00
262.000      3.13388e+00
263.000      2.87334e+00
264.000      2.69157e+00
265.000      2.58875e+00
266.000      2.56081e+00
267.000      2.59852e+00
268.000      2.68594e+00
269.000      2.79987e+00
270.000      2.91153e+00
271.000      2.99105e+00
272.000      3.01390e+00
273.000      2.96757e+00
274.000      2.85641e+00
275.000      2.70296e+00
276.000      2.54500e+00
277.000      2.42878e+00
278.000      2.39955e+00
279.000      2.49156e+00
280.000      2.71974e+00
281.000      3.07510e+00
282.000      3.52547e+00
283.000      4.02187e+00
284.000      4.50914e+00
285.000      4.93852e+00
286.000      5.27872e+00
287.000      5.52263e+00
288.000      5.68788e+00
289.000      5.81126e+00
290.000      5.93885e+00
291.000      6.11440e+00
292.000      6.36896e+00
293.000      6.71408e+00
294.000      7.13989e+00
295.000      7.61800e+00
296.000      8.10837e+00
297.000      8.56825e+00
298.000      8.96123e+00
299.000      9.26423e+00
300.000      9.47132e+00
301.000      9.59351e+00
302.000      9.65470e+00
303.000      9.68496e+00
304.000      9.71265e+00
305.000      9.75750e+00
306.000      9.82662e+00
307.000      9.91442e+00
308.000      1.00066e+01
309.000      1.00864e+01
310.000      1.01422e+01
311.000      1.01721e+01
312.000      1.01864e+01
313.000      1.02064e+01
314.000      1.02599e+01
315.000      1.03765e+01
316.000      1.05815e+01
317.000      1.08928e+01
318.000      1.13174e+01
319.000      1.18515e+01
320.000      1.24817e+01
321.000      1.31872e+01
322.000      1.39440e+01
323.000      1.47289e+01
324.000      1.55234e+01
325.000      1.63151e+01
326.000      1.70985e+01
327.000      1.78720e+01
328.000      1.86350e+01
329.000      1.93840e+01
330.000      2.01102e+01
331.000      2.07997e+01
332.000      2.14347e+01
333.000      2.19974e+01
334.000      2.24739e+01
335.000      2.28568e+01
336.000      2.31479e+01
337.000      2.33577e+01
338.000      2.35047e+01
339.000      2.36126e+01
340.000      2.37076e+01
341.000      2.38150e+01
342.000      2.39561e+01
343.000      2.41456e+01
344.000      2.43901e+01
345.000      2.46870e+01
346.000      2.50256e+01
347.000      2.53874e+01
348.000      2.57478e+01
349.000      2.60770e+01
350.000      2.63419e+01
351.000      2.65078e+01
352.000      2.65414e+01
353.000      2.64129e+01
354.000      2.60987e+01
355.000      2.55820e+01
356.000      2.48527e+01
357.000      2.39073e+01
358.000      2.27489e+01
359.000      2.13900e+01
360.000      1.98555e+01
361.000      1.81862e+01
362.000      1.64399e+01
363.000      1.46880e+01
364.000      1.30081e+01
365.000      1.14725e+01
366.000      1.01374e+01
367.000      9.03509e+00
368.000      8.17169e+00
369.000      7.53141e+00
370.000      7.08472e+00
371.000      6.79759e+00
372.000      6.63874e+00
373.000      6.58328e+00
374.000      6.61314e+00
375.000      6.71598e+00
376.000      6.88457e+00
377.000      7.11751e+00
378.000      7.42069e+00
379.000      7.80792e+00
380.000      8.29890e+00
381.000      8.91405e+00
382.000      9.66709e+00
383.000      1.05577e+01
384.000      1.15666e+01
385.000      1.26548e+01
386.000      1.37678e+01
387.000      1.48411e+01
388.000      1.58081e+01
389.000      1.66051e+01
390.000      1.71745e+01
391.000      1.74668e+01
392.000      1.74427e+01
393.000      1.70774e+01
394.000      1.63667e+01
395.000      1.53332e+01
396.000      1.40293e+01
397.000      1.25343e+01
398.000      1.09450e+01
399.000      9.36118e+00
400.000      7.87039e+00
401.000      6.53597e+00
402.000      5.39172e+00
403.000      4.44396e+00
404.000      3.67919e+00
405.000      3.07434e+00
406.000      2.60594e+00
407.000      2.25575e+00
408.000      2.01173e+00
409.000      1.86529e+00
410.000      1.80665e+00
411.000      1.82091e+00
412.000      1.88650e+00
413.000      1.97693e+00
414.000      2.06502e+00
415.000      2.12806e+00
416.000      2.15186e+00
417.000      2.13224e+00
418.000      2.07346e+00
419.000      1.98454e+00
420.000      1.87501e+00
421.000      1.75191e+00
422.000      1.61923e+00
423.000      1.47947e+00
424.000      1.33642e+00
425.000      1.19729e+00
426.000      1.07302e+00
427.000      9.76107e-01
428.000      9.16877e-01
429.000      8.99446e-01
430.000      9.19133e-01
431.000      9.62424e-01
432.000      1.00971e+00
433.000      1.04003e+00
434.000      1.03635e+00
435.000      9.89615e-01
436.000      9.00501e-01
437.000      7.78324e-01
438.000      6.37841e-01
439.000      4.95116e-01
440.000      3.63837e-01
441.000      2.53035e-01
442.000      1.66517e-01
443.000      1.03681e-01
444.000      6.10782e-02
445.000      3.40411e-02
446.000      1.79492e-02
447.000      8.95384e-03
448.000      4.22565e-03
449.000      1.88667e-03
450.000      7.96924e-04
451.000      3.18461e-04
452.000      1.20396e-04
453.000      4.30613e-05
454.000      1.45707e-05
455.000      4.66433e-06
456.000      1.41259e-06
457.000      4.04726e-07
458.000      1.09704e-07
459.000      2.81322e-08
460.000      6.82499e-09
461.000      1.56645e-09
462.000      3.40134e-10
463.000      6.98716e-11
464.000      1.35790e-11
465.000      2.49663e-12
466.000      4.34269e-13
467.000      7.14627e-14
468.000      1.11255e-14
469.000      1.63860e-15
470.000      2.28322e-16
471.000      3.00981e-17
472.000      3.75360e-18
473.000      4.42869e-19
474.000      4.94333e-20
475.000      5.22013e-21
476.000      5.21507e-22
477.000      4.92898e-23
478.000      4.40729e-24
479.000      3.72824e-25
480.000      2.98369e-26
481.000      2.25903e-27
482.000      1.61810e-28
483.000      1.09650e-29
484.000      7.02958e-31
485.000      4.26351e-32
486.000      2.44637e-33
487.000      1.32799e-34
488.000      6.82003e-36
489.000      3.31356e-37
490.000      1.52307e-38
491.000      6.62313e-40
492.000      2.72474e-41
493.000      1.06048e-42
494.000      3.90481e-44
495.000      1.36023e-45
496.000      4.48275e-47
497.000      1.39763e-48
498.000      4.12250e-50
499.000      1.15039e-51
500.000      3.03701e-53
