# Gaussian folded, width=10 cm^-1
# [cm^-1] arbitrary
0.000      3.00000e+00
1.000      2.91796e+00
2.000      2.68508e+00
3.000      2.33749e+00
4.000      1.92514e+00
5.000      1.50000e+00
6.000      1.10570e+00
7.000      7.71085e-01
8.000      5.08727e-01
9.000      3.17530e-01
10.000      1.87500e-01
11.000      1.04747e-01
12.000      5.53644e-02
13.000      2.76971e-02
14.000      1.31484e-02
15.000      6.02312e-03
16.000      2.94115e-03
17.000      2.22033e-03
18.000      3.47291e-03
19.000      7.54035e-03
20.000      1.68277e-02
21.000      3.60530e-02
22.000      7.33454e-02
23.000      1.41456e-01
24.000      2.58585e-01
25.000      4.48061e-01
26.000      7.35957e-01
27.000      1.14599e+00
28.000      1.69181e+00
29.000      2.36812e+00
30.000      3.14316e+00
31.000      3.95620e+00
32.000      4.72247e+00
33.000      5.34654e+00
34.000      5.74146e+00
35.000      5.84856e+00
36.000      5.65177e+00
37.000      5.18159e+00
38.000      4.50746e+00
39.000      3.72123e+00
40.000      2.91723e+00
41.000      2.17515e+00
42.000      1.55010e+00
43.000      1.07113e+00
44.000      7.46736e-01
45.000      5.73932e-01
46.000      5.47181e-01
47.000      6.64235e-01
48.000      9.27204e-01
49.000      1.33870e+00
50.000      1.89435e+00
51.000      2.57408e+00
52.000      3.33550e+00
53.000      4.11255e+00
54.000      4.82137e+00
55.000      5.37334e+00
56.000      5.69245e+00
57.000      5.73206e+00
58.000      5.48600e+00
59.000      4.99021e+00
60.000      4.31442e+00
61.000      3.54664e+00
62.000      2.77550e+00
63.000      2.07553e+00
64.000      1.49905e+00
65.000      1.07551e+00
66.000      8.16478e-01
67.000      7.23154e-01
68.000      7.92889e-01
69.000      1.02230e+00
70.000      1.40610e+00
71.000      1.93257e+00
72.000      2.57789e+00
73.000      3.30223e+00
74.000      4.05037e+00
75.000      4.75818e+00
76.000      5.36437e+00
77.000      5.82491e+00
78.000      6.12576e+00
79.000      6.28971e+00
80.000      6.37424e+00
81.000      6.46018e+00
82.000      6.63386e+00
83.000      6.96772e+00
84.000      7.50481e+00
85.000      8.25125e+00
86.000      9.17788e+00
87.000      1.02293e+01
88.000      1.13366e+01
89.000      1.24290e+01
90.000      1.34422e+01
91.000      1.43217e+01
92.000      1.50225e+01
93.000      1.55076e+01
94.000      1.57482e+01
95.000      1.57250e+01
96.000      1.54327e+01
97.000      1.48845e+01
98.000      1.41150e+01
99.000      1.31790e+01
100.000      1.21464e+01
101.000      1.10934e+01
102.000      1.00928e+01
103.000      9.20626e+00
104.000      8.48059e+00
105.000      7.94873e+00
106.000      7.63369e+00
107.000      7.55304e+00
108.000      7.72096e+00
109.000      8.14620e+00
110.000      8.82631e+00
111.000      9.74009e+00
112.000      1.08417e+01
113.000      1.20596e+01
114.000      1.33027e+01
115.000      1.44731e+01
116.000      1.54823e+01
117.000      1.62671e+01
118.000      1.67996e+01
119.000      1.70883e+01
120.000      1.71704e+01
121.000      1.70986e+01
122.000      1.69261e+01
123.000      1.66949e+01
124.000      1.64308e+01
125.000      1.61433e+01
126.000      1.58317e+01
127.000      1.54911e+01
128.000      1.51179e+01
129.000      1.47133e+01
130.000      1.42832e+01
131.000      1.38376e+01
132.000      1.33891e+01
133.000      1.29514e+01
134.000      1.25374e+01
135.000      1.21578e+01
136.000      1.18186e+01
137.000      1.15202e+01
138.000      1.12575e+01
139.000      1.10212e+01
140.000      1.08004e+01
141.000      1.05846e+01
142.000      1.03653e+01
143.000      1.01358e+01
144.000      9.89150e+00
145.000      9.62971e+00
146.000      9.35056e+00
147.000      9.05833e+00
148.000      8.76235e+00
149.000      8.47673e+00
150.000      8.21823e+00
151.000      8.00247e+00
152.000      7.83919e+00
153.000      7.72770e+00
154.000      7.65387e+00
155.000      7.58986e+00
156.000      7.49732e+00
157.000      7.33408e+00
158.000      7.06346e+00
159.000      6.66409e+00
160.000      6.13789e+00
161.000      5.51375e+00
162.000      4.84557e+00
163.000      4.20444e+00
164.000      3.66683e+00
165.000      3.30118e+00
166.000      3.15599e+00
167.000      3.25170e+00
168.000      3.57822e+00
169.000      4.09804e+00
170.000      4.75440e+00
171.000      5.48259e+00
172.000      6.22188e+00
173.000      6.92550e+00
174.000      7.56630e+00
175.000      8.13732e+00
176.000      8.64757e+00
177.000      9.11511e+00
178.000      9.55988e+00
179.000      9.99865e+00
180.000      1.04429e+01
181.000      1.08991e+01
182.000      1.13703e+01
183.000      1.18568e+01
184.000      1.23552e+01
185.000      1.28575e+01
186.000      1.33501e+01
187.000      1.38151e+01
188.000      1.42351e+01
189.000      1.45984e+01
190.000      1.49052e+01
191.000      1.51702e+01
192.000      1.54213e+01
193.000      1.56936e+01
194.000      1.60207e+01
195.000      1.64253e+01
196.000      1.69128e+01
197.000      1.74687e+01
198.000      1.80601e+01
199.000      1.86413e+01
200.000      1.91599e+01
201.000      1.95633e+01
202.000      1.98035e+01
203.000      1.98413e+01
204.000      1.96492e+01
205.000      1.92154e+01
206.000      1.85472e+01
207.000      1.76737e+01
208.000      1.66463e+01
209.000      1.55356e+01
210.000      1.44230e+01
211.000      1.33895e+01
212.000      1.25036e+01
213.000      1.18120e+01
214.000      1.13368e+01
215.000      1.10784e+01
216.000      1.10254e+01
217.000      1.11633e+01
218.000      1.14809e+01
219.000      1.19701e+01
220.000      1.26192e+01
221.000      1.34035e+01
222.000      1.42786e+01
223.000      1.51786e+01
224.000      1.60234e+01
225.000      1.67328e+01
226.000      1.72431e+01
227.000      1.75237e+01
228.000      1.75853e+01
229.000      1.74796e+01
230.000      1.72879e+01
231.000      1.71031e+01
232.000      1.70080e+01
233.000      1.70566e+01
234.000      1.72642e+01
235.000      1.76065e+01
236.000      1.80299e+01
237.000      1.84674e+01
238.000      1.88564e+01
239.000      1.91529e+01
240.000      1.93389e+01
241.000      1.94220e+01
242.000      1.94284e+01
243.000      1.93926e+01
244.000      1.93452e+01
245.000      1.93037e+01
246.000      1.92657e+01
247.000      1.92081e+01
248.000      1.90909e+01
249.000      1.88653e+01
250.000      1.84844e+01
251.000      1.79148e+01
252.000      1.71451e+01
253.000      1.61891e+01
254.000      1.50846e+01
255.000      1.38848e+01
256.000      1.26483e+01
257.000      1.14282e+01
258.000      1.02651e+01
259.000      9.18481e+00
260.000      8.20077e+00
261.000      7.31913e+00
262.000      6.54331e+00
263.000      5.87618e+00
264.000      5.31934e+00
265.000      4.87097e+00
266.000      4.52425e+00
267.000      4.26857e+00
268.000      4.09369e+00
269.000      3.99603e+00
270.000      3.98424e+00
271.000      4.08162e+00
272.000      4.32324e+00
273.000      4.74766e+00
274.000      5.38496e+00
275.000      6.24413e+00
276.000      7.30349e+00
277.000      8.50711e+00
278.000      9.76857e+00
279.000      1.09817e+01
280.000      1.20357e+01
281.000      1.28326e+01
282.000      1.33019e+01
283.000      1.34110e+01
284.000      1.31700e+01
285.000      1.26276e+01
286.000      1.18625e+01
287.000      1.09687e+01
288.000      1.00402e+01
289.000      9.15655e+00
290.000      8.37335e+00
291.000      7.71870e+00
292.000      7.19566e+00
293.000      6.78904e+00
294.000      6.47376e+00
295.000      6.22241e+00
296.000      6.01020e+00
297.000      5.81716e+00
298.000      5.62835e+00
299.000      5.43308e+00
300.000      5.22425e+00
301.000      4.99815e+00
302.000      4.75462e+00
303.000      4.49721e+00
304.000      4.23299e+00
305.000      3.97181e+00
306.000      3.72475e+00
307.000      3.50205e+00
308.000      3.31076e+00
309.000      3.15270e+00
310.000      3.02367e+00
311.000      2.91471e+00
312.000      2.81527e+00
313.000      2.71768e+00
314.000      2.62111e+00
315.000      2.53335e+00
316.000      2.46965e+00
317.000      2.44888e+00
318.000      2.48897e+00
319.000      2.60360e+00
320.000      2.80153e+00
321.000      3.08819e+00
322.000      3.46795e+00
323.000      3.94479e+00
324.000      4.51992e+00
325.000      5.18733e+00
326.000      5.92936e+00
327.000      6.71558e+00
328.000      7.50685e+00
329.000      8.26382e+00
330.000      8.95696e+00
331.000      9.57388e+00
332.000      1.01208e+01
333.000      1.06176e+01
334.000      1.10890e+01
335.000      1.15551e+01
336.000      1.20261e+01
337.000      1.25022e+01
338.000      1.29779e+01
339.000      1.34472e+01
340.000      1.39069e+01
341.000      1.43549e+01
342.000      1.47850e+01
343.000      1.51789e+01
344.000      1.55018e+01
345.000      1.57034e+01
346.000      1.57251e+01
347.000      1.55136e+01
348.000      1.50351e+01
349.000      1.42867e+01
350.000      1.33023e+01
351.000      1.21494e+01
352.000      1.09202e+01
353.000      9.71656e+00
354.000      8.63377e+00
355.000      7.74627e+00
356.000      7.09840e+00
357.000      6.70157e+00
358.000      6.53756e+00
359.000      6.56566e+00
360.000      6.73127e+00
361.000      6.97358e+00
362.000      7.23175e+00
363.000      7.44982e+00
364.000      7.58094e+00
365.000      7.59135e+00
366.000      7.46329e+00
367.000      7.19608e+00
368.000      6.80461e+00
369.000      6.31547e+00
370.000      5.76201e+00
371.000      5.17989e+00
372.000      4.60419e+00
373.000      4.06815e+00
374.000      3.60236e+00
375.000      3.23329e+00
376.000      2.98026e+00
377.000      2.85143e+00
378.000      2.84015e+00
379.000      2.92391e+00
380.000      3.06675e+00
381.000      3.22539e+00
382.000      3.35738e+00
383.000      3.42910e+00
384.000      3.42145e+00
385.000      3.33201e+00
386.000      3.17349e+00
387.000      2.96959e+00
388.000      2.74923e+00
389.000      2.54063e+00
390.000      2.36615e+00
391.000      2.23848e+00
392.000      2.15875e+00
393.000      2.11690e+00
394.000      2.09427e+00
395.000      2.06796e+00
396.000      2.01600e+00
397.000      1.92217e+00
398.000      1.77930e+00
399.000      1.59032e+00
400.000      1.36696e+00
401.000      1.12661e+00
402.000      8.88282e-01
403.000      6.68821e-01
404.000      4.80191e-01
405.000      3.28347e-01
406.000      2.13605e-01
407.000      1.32088e-01
408.000      7.75812e-02
409.000      4.32518e-02
410.000      2.28753e-02
411.000      1.14719e-02
412.000      5.45308e-03
413.000      2.45606e-03
414.000      1.04787e-03
415.000      4.23399e-04
416.000      1.61987e-04
417.000      5.86718e-05
418.000      2.01162e-05
419.000      6.52802e-06
420.000      2.00493e-06
421.000      5.82730e-07
422.000      1.60274e-07
423.000      4.17123e-08
424.000      1.02720e-08
425.000      2.39344e-09
426.000      5.27660e-10
427.000      1.10063e-10
428.000      2.17210e-11
429.000      4.05564e-12
430.000      7.16437e-13
431.000      1.19738e-13
432.000      1.89328e-14
433.000      2.83222e-15
434.000      4.00835e-16
435.000      5.36698e-17
436.000      6.79856e-18
437.000      8.14754e-19
438.000      9.23757e-20
439.000      9.90854e-21
440.000      1.00550e-21
441.000      9.65325e-23
442.000      8.76768e-24
443.000      7.53381e-25
444.000      6.12439e-26
445.000      4.71010e-27
446.000      3.42701e-28
447.000      2.35895e-29
448.000      1.53618e-30
449.000      9.46414e-32
450.000      5.51618e-33
451.000      3.04169e-34
452.000      1.58675e-35
453.000      7.83103e-37
454.000      3.65635e-38
455.000      1.61508e-39
456.000      6.74930e-41
457.000      2.66834e-42
458.000      9.98022e-44
459.000      3.53148e-45
460.000      1.18220e-46
461.000      3.74408e-48
462.000      1.12180e-49
463.000      3.17982e-51
464.000      8.52723e-53
465.000      2.16337e-54
466.000      5.19244e-56
467.000      1.17904e-57
468.000      2.53283e-59
469.000      5.14753e-61
470.000      9.89715e-63
471.000      1.80027e-64
472.000      3.09802e-66
473.000      5.04369e-68
474.000      7.76837e-70
475.000      1.13195e-71
476.000      1.56044e-73
477.000      2.03507e-75
478.000      2.51091e-77
479.000      2.93090e-79
480.000      3.23660e-81
481.000      3.38137e-83
482.000      3.34207e-85
483.000      3.12504e-87
484.000      2.76447e-89
485.000      2.31360e-91
486.000      1.83181e-93
487.000      1.37212e-95
488.000      9.72340e-98
489.000     6.51874e-100
490.000     4.13454e-102
491.000     2.48089e-104
492.000     1.40833e-106
493.000     7.56348e-109
494.000     3.84286e-111
495.000     1.84717e-113
496.000     8.39991e-116
497.000     3.61377e-118
498.000     1.47084e-120
499.000     5.66352e-123
500.000     2.06312e-125
