# Gaussian folded, width=10 cm^-1
# [cm^-1] arbitrary
0.000      3.00000e+00
1.000      2.91796e+00
2.000      2.68508e+00
3.000      2.33749e+00
4.000      1.92514e+00
5.000      1.50000e+00
6.000      1.10570e+00
7.000      7.71085e-01
8.000      5.08727e-01
9.000      3.17530e-01
10.000      1.87500e-01
11.000      1.04746e-01
12.000      5.53597e-02
13.000      2.76820e-02
14.000      1.31016e-02
15.000      5.88638e-03
16.000      2.56313e-03
17.000      1.23200e-03
18.000      1.02979e-03
19.000      1.83150e-03
20.000      4.22144e-03
21.000      9.75661e-03
22.000      2.15508e-02
23.000      4.51837e-02
24.000      8.98453e-02
25.000      1.69436e-01
26.000      3.03089e-01
27.000      5.14335e-01
28.000      8.28130e-01
29.000      1.26528e+00
30.000      1.83472e+00
31.000      2.52525e+00
32.000      3.29947e+00
33.000      4.09294e+00
34.000      4.82082e+00
35.000      5.39183e+00
36.000      5.72678e+00
37.000      5.77649e+00
38.000      5.53363e+00
39.000      5.03447e+00
40.000      4.35006e+00
41.000      3.56975e+00
42.000      2.78240e+00
43.000      2.06067e+00
44.000      1.45221e+00
45.000      9.78703e-01
46.000      6.41201e-01
47.000      4.28908e-01
48.000      3.28303e-01
49.000      3.30251e-01
50.000      4.33714e-01
51.000      6.45579e-01
52.000      9.76763e-01
53.000      1.43540e+00
54.000      2.01857e+00
55.000      2.70479e+00
56.000      3.44982e+00
57.000      4.18807e+00
58.000      4.84042e+00
59.000      5.32753e+00
60.000      5.58547e+00
61.000      5.57939e+00
62.000      5.31113e+00
63.000      4.81875e+00
64.000      4.16797e+00
65.000      3.43855e+00
66.000      2.70951e+00
67.000      2.04740e+00
68.000      1.49985e+00
69.000      1.09519e+00
70.000      8.46406e-01
71.000      7.57016e-01
72.000      8.25925e-01
73.000      1.04943e+00
74.000      1.41971e+00
75.000      1.92081e+00
76.000      2.52427e+00
77.000      3.18696e+00
78.000      3.85336e+00
79.000      4.46287e+00
80.000      4.96107e+00
81.000      5.31206e+00
82.000      5.50821e+00
83.000      5.57436e+00
84.000      5.56464e+00
85.000      5.55236e+00
86.000      5.61532e+00
87.000      5.81993e+00
88.000      6.20800e+00
89.000      6.78917e+00
90.000      7.54067e+00
91.000      8.41406e+00
92.000      9.34678e+00
93.000      1.02752e+01
94.000      1.11453e+01
95.000      1.19191e+01
96.000      1.25744e+01
97.000      1.31010e+01
98.000      1.34933e+01
99.000      1.37448e+01
100.000      1.38443e+01
101.000      1.37774e+01
102.000      1.35310e+01
103.000      1.31003e+01
104.000      1.24949e+01
105.000      1.17425e+01
106.000      1.08888e+01
107.000      9.99287e+00
108.000      9.12001e+00
109.000      8.33424e+00
110.000      7.69166e+00
111.000      7.23652e+00
112.000      6.99986e+00
113.000      6.99984e+00
114.000      7.24260e+00
115.000      7.72226e+00
116.000      8.41953e+00
117.000      9.29959e+00
118.000      1.03108e+01
119.000      1.13860e+01
120.000      1.24479e+01
121.000      1.34188e+01
122.000      1.42320e+01
123.000      1.48423e+01
124.000      1.52325e+01
125.000      1.54136e+01
126.000      1.54187e+01
127.000      1.52930e+01
128.000      1.50831e+01
129.000      1.48284e+01
130.000      1.45571e+01
131.000      1.42852e+01
132.000      1.40199e+01
133.000      1.37628e+01
134.000      1.35137e+01
135.000      1.32727e+01
136.000      1.30414e+01
137.000      1.28221e+01
138.000      1.26163e+01
139.000      1.24227e+01
140.000      1.22360e+01
141.000      1.20473e+01
142.000      1.18461e+01
143.000      1.16237e+01
144.000      1.13762e+01
145.000      1.11062e+01
146.000      1.08220e+01
147.000      1.05341e+01
148.000      1.02516e+01
149.000      9.97938e+00
150.000      9.71654e+00
151.000      9.45817e+00
152.000      9.19790e+00
153.000      8.93081e+00
154.000      8.65525e+00
155.000      8.37320e+00
156.000      8.08913e+00
157.000      7.80838e+00
158.000      7.53579e+00
159.000      7.27515e+00
160.000      7.02958e+00
161.000      6.80213e+00
162.000      6.59598e+00
163.000      6.41374e+00
164.000      6.25591e+00
165.000      6.11956e+00
166.000      5.99809e+00
167.000      5.88308e+00
168.000      5.76769e+00
169.000      5.65040e+00
170.000      5.53721e+00
171.000      5.44106e+00
172.000      5.37820e+00
173.000      5.36322e+00
174.000      5.40462e+00
175.000      5.50290e+00
176.000      5.65158e+00
177.000      5.84050e+00
178.000      6.05946e+00
179.000      6.30090e+00
180.000      6.56067e+00
181.000      6.83709e+00
182.000      7.12940e+00
183.000      7.43630e+00
184.000      7.75550e+00
185.000      8.08437e+00
186.000      8.42127e+00
187.000      8.76690e+00
188.000      9.12474e+00
189.000      9.49998e+00
190.000      9.89683e+00
191.000      1.03151e+01
192.000      1.07477e+01
193.000      1.11797e+01
194.000      1.15913e+01
195.000      1.19620e+01
196.000      1.22762e+01
197.000      1.25269e+01
198.000      1.27166e+01
199.000      1.28538e+01
200.000      1.29484e+01
201.000      1.30053e+01
202.000      1.30211e+01
203.000      1.29848e+01
204.000      1.28821e+01
205.000      1.27024e+01
206.000      1.24462e+01
207.000      1.21279e+01
208.000      1.17754e+01
209.000      1.14230e+01
210.000      1.11022e+01
211.000      1.08319e+01
212.000      1.06125e+01
213.000      1.04266e+01
214.000      1.02469e+01
215.000      1.00489e+01
216.000      9.82458e+00
217.000      9.59168e+00
218.000      9.39441e+00
219.000      9.29494e+00
220.000      9.35753e+00
221.000      9.63034e+00
222.000      1.01308e+01
223.000      1.08386e+01
224.000      1.16989e+01
225.000      1.26323e+01
226.000      1.35506e+01
227.000      1.43718e+01
228.000      1.50319e+01
229.000      1.54919e+01
230.000      1.57398e+01
231.000      1.57881e+01
232.000      1.56691e+01
233.000      1.54286e+01
234.000      1.51196e+01
235.000      1.47958e+01
236.000      1.45055e+01
237.000      1.42858e+01
238.000      1.41578e+01
239.000      1.41237e+01
240.000      1.41661e+01
241.000      1.42513e+01
242.000      1.43358e+01
243.000      1.43755e+01
244.000      1.43345e+01
245.000      1.41922e+01
246.000      1.39459e+01
247.000      1.36093e+01
248.000      1.32076e+01
249.000      1.27700e+01
250.000      1.23234e+01
251.000      1.18875e+01
252.000      1.14731e+01
253.000      1.10835e+01
254.000      1.07169e+01
255.000      1.03710e+01
256.000      1.00444e+01
257.000      9.73722e+00
258.000      9.45002e+00
259.000      9.18182e+00
260.000      8.92953e+00
261.000      8.68910e+00
262.000      8.45801e+00
263.000      8.23748e+00
264.000      8.03277e+00
265.000      7.85062e+00
266.000      7.69448e+00
267.000      7.55941e+00
268.000      7.42919e+00
269.000      7.27712e+00
270.000      7.07102e+00
271.000      6.78109e+00
272.000      6.38847e+00
273.000      5.89191e+00
274.000      5.31078e+00
275.000      4.68322e+00
276.000      4.05993e+00
277.000      3.49499e+00
278.000      3.03582e+00
279.000      2.71490e+00
280.000      2.54509e+00
281.000      2.51960e+00
282.000      2.61603e+00
283.000      2.80307e+00
284.000      3.04771e+00
285.000      3.32107e+00
286.000      3.60191e+00
287.000      3.87744e+00
288.000      4.14230e+00
289.000      4.39639e+00
290.000      4.64214e+00
291.000      4.88164e+00
292.000      5.11362e+00
293.000      5.33067e+00
294.000      5.51725e+00
295.000      5.64964e+00
296.000      5.69871e+00
297.000      5.63559e+00
298.000      5.43962e+00
299.000      5.10632e+00
300.000      4.65307e+00
301.000      4.12013e+00
302.000      3.56646e+00
303.000      3.06083e+00
304.000      2.67074e+00
305.000      2.45165e+00
306.000      2.43887e+00
307.000      2.64335e+00
308.000      3.05164e+00
309.000      3.62919e+00
310.000      4.32641e+00
311.000      5.08606e+00
312.000      5.85120e+00
313.000      6.57228e+00
314.000      7.21242e+00
315.000      7.75018e+00
316.000      8.17942e+00
317.000      8.50702e+00
318.000      8.74952e+00
319.000      8.92979e+00
320.000      9.07472e+00
321.000      9.21384e+00
322.000      9.37832e+00
323.000      9.59959e+00
324.000      9.90704e+00
325.000      1.03249e+01
326.000      1.08690e+01
327.000      1.15450e+01
328.000      1.23472e+01
329.000      1.32606e+01
330.000      1.42628e+01
331.000      1.53275e+01
332.000      1.64270e+01
333.000      1.75326e+01
334.000      1.86151e+01
335.000      1.96447e+01
336.000      2.05907e+01
337.000      2.14247e+01
338.000      2.21231e+01
339.000      2.26710e+01
340.000      2.30632e+01
341.000      2.33044e+01
342.000      2.34064e+01
343.000      2.33853e+01
344.000      2.32584e+01
345.000      2.30437e+01
346.000      2.27590e+01
347.000      2.24216e+01
348.000      2.20470e+01
349.000      2.16458e+01
350.000      2.12211e+01
351.000      2.07657e+01
352.000      2.02628e+01
353.000      1.96886e+01
354.000      1.90187e+01
355.000      1.82351e+01
356.000      1.73334e+01
357.000      1.63274e+01
358.000      1.52487e+01
359.000      1.41426e+01
360.000      1.30594e+01
361.000      1.20448e+01
362.000      1.11306e+01
363.000      1.03298e+01
364.000      9.63622e+00
365.000      9.02942e+00
366.000      8.48225e+00
367.000      7.96985e+00
368.000      7.47703e+00
369.000      7.00215e+00
370.000      6.55668e+00
371.000      6.16065e+00
372.000      5.83551e+00
373.000      5.59687e+00
374.000      5.44982e+00
375.000      5.38866e+00
376.000      5.40130e+00
377.000      5.47664e+00
378.000      5.61200e+00
379.000      5.81719e+00
380.000      6.11290e+00
381.000      6.52322e+00
382.000      7.06395e+00
383.000      7.73037e+00
384.000      8.48849e+00
385.000      9.27346e+00
386.000      9.99647e+00
387.000      1.05594e+01
388.000      1.08741e+01
389.000      1.08808e+01
390.000      1.05614e+01
391.000      9.94403e+00
392.000      9.09659e+00
393.000      8.11209e+00
394.000      7.08906e+00
395.000      6.11268e+00
396.000      5.24138e+00
397.000      4.50223e+00
398.000      3.89492e+00
399.000      3.40181e+00
400.000      2.99943e+00
401.000      2.66748e+00
402.000      2.39275e+00
403.000      2.16851e+00
404.000      1.99108e+00
405.000      1.85642e+00
406.000      1.75826e+00
407.000      1.68810e+00
408.000      1.63619e+00
409.000      1.59248e+00
410.000      1.54707e+00
411.000      1.49051e+00
412.000      1.41443e+00
413.000      1.31295e+00
414.000      1.18429e+00
415.000      1.03186e+00
416.000      8.64042e-01
417.000      6.92514e-01
418.000      5.29569e-01
419.000      3.85459e-01
420.000      2.66584e-01
421.000      1.74959e-01
422.000      1.08866e-01
423.000      6.41824e-02
424.000      3.58358e-02
425.000      1.89432e-02
426.000      9.47828e-03
427.000      4.48825e-03
428.000      2.01118e-03
429.000      8.52738e-04
430.000      3.42098e-04
431.000      1.29849e-04
432.000      4.66304e-05
433.000      1.58429e-05
434.000      5.09249e-06
435.000      1.54864e-06
436.000      4.45550e-07
437.000      1.21273e-07
438.000      3.12284e-08
439.000      7.60774e-09
440.000      1.75340e-09
441.000      3.82318e-10
442.000      7.88655e-11
443.000      1.53910e-11
444.000      2.84161e-12
445.000      4.96342e-13
446.000      8.20190e-14
447.000      1.28223e-14
448.000      1.89642e-15
449.000      2.65351e-16
450.000      3.51258e-17
451.000      4.39894e-18
452.000      5.21179e-19
453.000      5.84177e-20
454.000      6.19468e-21
455.000      6.21457e-22
456.000      5.89822e-23
457.000      5.29601e-24
458.000      4.49877e-25
459.000      3.61540e-26
460.000      2.74876e-27
461.000      1.97713e-28
462.000      1.34540e-29
463.000      8.66131e-31
464.000      5.27515e-32
465.000      3.03951e-33
466.000      1.65687e-34
467.000      8.54461e-36
468.000      4.16882e-37
469.000      1.92421e-38
470.000      8.40250e-40
471.000      3.47122e-41
472.000      1.35667e-42
473.000      5.01630e-44
474.000      1.75473e-45
475.000      5.80704e-47
476.000      1.81809e-48
477.000      5.38513e-50
478.000      1.50901e-51
479.000      4.00044e-53
480.000      1.00332e-54
481.000      2.38062e-56
482.000      5.34389e-58
483.000      1.13486e-59
484.000      2.28006e-61
485.000      4.33377e-63
486.000      7.79299e-65
487.000      1.32574e-66
488.000      2.13370e-68
489.000      3.24880e-70
490.000      4.67985e-72
491.000      6.37761e-74
492.000      8.22246e-76
493.000      1.00291e-77
494.000      1.15729e-79
495.000      1.26339e-81
496.000      1.30482e-83
497.000      1.27492e-85
498.000      1.17851e-87
499.000      1.03062e-89
500.000      8.52675e-92
