# Gaussian folded, width=10 cm^-1
# [cm^-1] arbitrary
0.000      3.00000e+00
1.000      2.91796e+00
2.000      2.68508e+00
3.000      2.33749e+00
4.000      1.92514e+00
5.000      1.50000e+00
6.000      1.10570e+00
7.000      7.71085e-01
8.000      5.08727e-01
9.000      3.17529e-01
10.000      1.87500e-01
11.000      1.04746e-01
12.000      5.53590e-02
13.000      2.76795e-02
14.000      1.30932e-02
15.000      5.85948e-03
16.000      2.48111e-03
17.000      9.95096e-04
18.000      3.81657e-04
19.000      1.51836e-04
20.000      9.80672e-05
21.000      1.68283e-04
22.000      4.31847e-04
23.000      1.12799e-03
24.000      2.81488e-03
25.000      6.66305e-03
26.000      1.49511e-02
27.000      3.18055e-02
28.000      6.41590e-02
29.000      1.22757e-01
30.000      2.22842e-01
31.000      3.83924e-01
32.000      6.27989e-01
33.000      9.75648e-01
34.000      1.44033e+00
35.000      2.02149e+00
36.000      2.69865e+00
37.000      3.42866e+00
38.000      4.14809e+00
39.000      4.78144e+00
40.000      5.25397e+00
41.000      5.50612e+00
42.000      5.50570e+00
43.000      5.25445e+00
44.000      4.78717e+00
45.000      4.16390e+00
46.000      3.45754e+00
47.000      2.74027e+00
48.000      2.07227e+00
49.000      1.49468e+00
50.000      1.02779e+00
51.000      6.73568e-01
52.000      4.20887e-01
53.000      2.51677e-01
54.000      1.46428e-01
55.000      8.82797e-02
56.000      6.55509e-02
57.000      7.30127e-02
58.000      1.12303e-01
59.000      1.91701e-01
60.000      3.25174e-01
61.000      5.30350e-01
62.000      8.25083e-01
63.000      1.22259e+00
64.000      1.72577e+00
65.000      2.32204e+00
66.000      2.98040e+00
67.000      3.65225e+00
68.000      4.27669e+00
69.000      4.78962e+00
70.000      5.13473e+00
71.000      5.27363e+00
72.000      5.19258e+00
73.000      4.90438e+00
74.000      4.44523e+00
75.000      3.86763e+00
76.000      3.23140e+00
77.000      2.59496e+00
78.000      2.00844e+00
79.000      1.50977e+00
80.000      1.12402e+00
81.000      8.65076e-01
82.000      7.38712e-01
83.000      7.45469e-01
84.000      8.82192e-01
85.000      1.14168e+00
86.000      1.51080e+00
87.000      1.96808e+00
88.000      2.48244e+00
89.000      3.01424e+00
90.000      3.51910e+00
91.000      3.95416e+00
92.000      4.28493e+00
93.000      4.49113e+00
94.000      4.56975e+00
95.000      4.53496e+00
96.000      4.41534e+00
97.000      4.24968e+00
98.000      4.08267e+00
99.000      3.96073e+00
100.000      3.92787e+00
101.000      4.02074e+00
102.000      4.26320e+00
103.000      4.66133e+00
104.000      5.20101e+00
105.000      5.84982e+00
106.000      6.56364e+00
107.000      7.29632e+00
108.000      8.00906e+00
109.000      8.67622e+00
110.000      9.28549e+00
111.000      9.83287e+00
112.000      1.03153e+01
113.000      1.07244e+01
114.000      1.10446e+01
115.000      1.12557e+01
116.000      1.13399e+01
117.000      1.12887e+01
118.000      1.11067e+01
119.000      1.08123e+01
120.000      1.04327e+01
121.000      9.99853e+00
122.000      9.53839e+00
123.000      9.07663e+00
124.000      8.63417e+00
125.000      8.23105e+00
126.000      7.88868e+00
127.000      7.63006e+00
128.000      7.47741e+00
129.000      7.44753e+00
130.000      7.54636e+00
131.000      7.76452e+00
132.000      8.07561e+00
133.000      8.43870e+00
134.000      8.80503e+00
135.000      9.12786e+00
136.000      9.37278e+00
137.000      9.52527e+00
138.000      9.59297e+00
139.000      9.60165e+00
140.000      9.58640e+00
141.000      9.58087e+00
142.000      9.60801e+00
143.000      9.67488e+00
144.000      9.77249e+00
145.000      9.88007e+00
146.000      9.97192e+00
147.000      1.00248e+01
148.000      1.00244e+01
149.000      9.96880e+00
150.000      9.87011e+00
151.000      9.75191e+00
152.000      9.64489e+00
153.000      9.58046e+00
154.000      9.58395e+00
155.000      9.66879e+00
156.000      9.83343e+00
157.000      1.00619e+01
158.000      1.03284e+01
159.000      1.06046e+01
160.000      1.08669e+01
161.000      1.11013e+01
162.000      1.13037e+01
163.000      1.14744e+01
164.000      1.16104e+01
165.000      1.16986e+01
166.000      1.17126e+01
167.000      1.16168e+01
168.000      1.13760e+01
169.000      1.09669e+01
170.000      1.03881e+01
171.000      9.66341e+00
172.000      8.83834e+00
173.000      7.97094e+00
174.000      7.12046e+00
175.000      6.33775e+00
176.000      5.65995e+00
177.000      5.10970e+00
178.000      4.69753e+00
179.000      4.42506e+00
180.000      4.28767e+00
181.000      4.27578e+00
182.000      4.37504e+00
183.000      4.56605e+00
184.000      4.82418e+00
185.000      5.11976e+00
186.000      5.41911e+00
187.000      5.68696e+00
188.000      5.89049e+00
189.000      6.00485e+00
190.000      6.01889e+00
191.000      5.93923e+00
192.000      5.79077e+00
193.000      5.61256e+00
194.000      5.44953e+00
195.000      5.34209e+00
196.000      5.31663e+00
197.000      5.37947e+00
198.000      5.51619e+00
199.000      5.69593e+00
200.000      5.87946e+00
201.000      6.02810e+00
202.000      6.11108e+00
203.000      6.10979e+00
204.000      6.01844e+00
205.000      5.84247e+00
206.000      5.59604e+00
207.000      5.29994e+00
208.000      4.97979e+00
209.000      4.66385e+00
210.000      4.37952e+00
211.000      4.14845e+00
212.000      3.98150e+00
213.000      3.87548e+00
214.000      3.81334e+00
215.000      3.76800e+00
216.000      3.70878e+00
217.000      3.60828e+00
218.000      3.44761e+00
219.000      3.21915e+00
220.000      2.92651e+00
221.000      2.58264e+00
222.000      2.20691e+00
223.000      1.82174e+00
224.000      1.44937e+00
225.000      1.10889e+00
226.000      8.14108e-01
227.000      5.72392e-01
228.000      3.84707e-01
229.000      2.46768e-01
230.000      1.50856e-01
231.000      8.77859e-02
232.000      4.85779e-02
233.000      2.55406e-02
234.000      1.27496e-02
235.000      6.03918e-03
236.000      2.71307e-03
237.000      1.15550e-03
238.000      4.66403e-04
239.000      1.78364e-04
240.000      6.46116e-05
241.000      2.21658e-05
242.000      7.20041e-06
243.000      2.21448e-06
244.000      6.44725e-07
245.000      1.77675e-07
246.000      4.63439e-08
247.000      1.14417e-08
248.000      2.68084e-09
249.000      6.34702e-10
250.000      3.45622e-10
251.000      1.08805e-09
252.000      4.82497e-09
253.000      2.06694e-08
254.000      8.38423e-08
255.000      3.21763e-07
256.000      1.16825e-06
257.000      4.01292e-06
258.000      1.30412e-05
259.000      4.00969e-05
260.000      1.16640e-04
261.000      3.21029e-04
262.000      8.36012e-04
263.000      2.06005e-03
264.000      4.80368e-03
265.000      1.06011e-02
266.000      2.21454e-02
267.000      4.37998e-02
268.000      8.20481e-02
269.000      1.45643e-01
270.000      2.45160e-01
271.000      3.91735e-01
272.000      5.95050e-01
273.000      8.61028e-01
274.000      1.19013e+00
275.000      1.57719e+00
276.000      2.01330e+00
277.000      2.48912e+00
278.000      2.99804e+00
279.000      3.53686e+00
280.000      4.10263e+00
281.000      4.68611e+00
282.000      5.26487e+00
283.000      5.80038e+00
284.000      6.24300e+00
285.000      6.54545e+00
286.000      6.68163e+00
287.000      6.66379e+00
288.000      6.55085e+00
289.000      6.44301e+00
290.000      6.46253e+00
291.000      6.72565e+00
292.000      7.31382e+00
293.000      8.25234e+00
294.000      9.50209e+00
295.000      1.09658e+01
296.000      1.25059e+01
297.000      1.39687e+01
298.000      1.52088e+01
299.000      1.61088e+01
300.000      1.65929e+01
301.000      1.66339e+01
302.000      1.62549e+01
303.000      1.55276e+01
304.000      1.45657e+01
305.000      1.35124e+01
306.000      1.25213e+01
307.000      1.17324e+01
308.000      1.12464e+01
309.000      1.11040e+01
310.000      1.12772e+01
311.000      1.16751e+01
312.000      1.21655e+01
313.000      1.26054e+01
314.000      1.28752e+01
315.000      1.29070e+01
316.000      1.27011e+01
317.000      1.23277e+01
318.000      1.19128e+01
319.000      1.16132e+01
320.000      1.15853e+01
321.000      1.19562e+01
322.000      1.28040e+01
323.000      1.41490e+01
324.000      1.59583e+01
325.000      1.81567e+01
326.000      2.06403e+01
327.000      2.32871e+01
328.000      2.59638e+01
329.000      2.85308e+01
330.000      3.08485e+01
331.000      3.27867e+01
332.000      3.42371e+01
333.000      3.51255e+01
334.000      3.54213e+01
335.000      3.51405e+01
336.000      3.43436e+01
337.000      3.31286e+01
338.000      3.16206e+01
339.000      2.99596e+01
340.000      2.82865e+01
341.000      2.67299e+01
342.000      2.53939e+01
343.000      2.43503e+01
344.000      2.36359e+01
345.000      2.32565e+01
346.000      2.31942e+01
347.000      2.34169e+01
348.000      2.38857e+01
349.000      2.45577e+01
350.000      2.53852e+01
351.000      2.63129e+01
352.000      2.72754e+01
353.000      2.81978e+01
354.000      2.90006e+01
355.000      2.96071e+01
356.000      2.99526e+01
357.000      2.99907e+01
358.000      2.96962e+01
359.000      2.90640e+01
360.000      2.81046e+01
361.000      2.68393e+01
362.000      2.52970e+01
363.000      2.35137e+01
364.000      2.15349e+01
365.000      1.94183e+01
366.000      1.72349e+01
367.000      1.50662e+01
368.000      1.29980e+01
369.000      1.11116e+01
370.000      9.47530e+00
371.000      8.13825e+00
372.000      7.12866e+00
373.000      6.45476e+00
374.000      6.10781e+00
375.000      6.06521e+00
376.000      6.29299e+00
377.000      6.74860e+00
378.000      7.38508e+00
379.000      8.15782e+00
380.000      9.03280e+00
381.000      9.99347e+00
382.000      1.10422e+01
383.000      1.21939e+01
384.000      1.34624e+01
385.000      1.48457e+01
386.000      1.63155e+01
387.000      1.78184e+01
388.000      1.92874e+01
389.000      2.06589e+01
390.000      2.18861e+01
391.000      2.29426e+01
392.000      2.38117e+01
393.000      2.44701e+01
394.000      2.48729e+01
395.000      2.49493e+01
396.000      2.46143e+01
397.000      2.37914e+01
398.000      2.24401e+01
399.000      2.05773e+01
400.000      1.82851e+01
401.000      1.57034e+01
402.000      1.30076e+01
403.000      1.03802e+01
404.000      7.98206e+00
405.000      5.93180e+00
406.000      4.29529e+00
407.000      3.08676e+00
408.000      2.27826e+00
409.000      1.81343e+00
410.000      1.62164e+00
411.000      1.62971e+00
412.000      1.77008e+00
413.000      1.98540e+00
414.000      2.23018e+00
415.000      2.47052e+00
416.000      2.68242e+00
417.000      2.84972e+00
418.000      2.96238e+00
419.000      3.01556e+00
420.000      3.00986e+00
421.000      2.95212e+00
422.000      2.85589e+00
423.000      2.74033e+00
424.000      2.62690e+00
425.000      2.53415e+00
426.000      2.47200e+00
427.000      2.43779e+00
428.000      2.41598e+00
429.000      2.38214e+00
430.000      2.31043e+00
431.000      2.18193e+00
432.000      1.99097e+00
433.000      1.74739e+00
434.000      1.47413e+00
435.000      1.20140e+00
436.000      9.59652e-01
437.000      7.73401e-01
438.000      6.57245e-01
439.000      6.14331e-01
440.000      6.36842e-01
441.000      7.07897e-01
442.000      8.04464e-01
443.000      9.01050e-01
444.000      9.73887e-01
445.000      1.00500e+00
446.000      9.85253e-01
447.000      9.15500e-01
448.000      8.05472e-01
449.000      6.70691e-01
450.000      5.28428e-01
451.000      3.93912e-01
452.000      2.77808e-01
453.000      1.85359e-01
454.000      1.17005e-01
455.000      6.98736e-02
456.000      3.94766e-02
457.000      2.11001e-02
458.000      1.06696e-02
459.000      5.10421e-03
460.000      2.31008e-03
461.000      9.89105e-04
462.000      4.00660e-04
463.000      1.53542e-04
464.000      5.56667e-05
465.000      1.90933e-05
466.000      6.19562e-06
467.000      1.90198e-06
468.000      5.52389e-07
469.000      1.51776e-07
470.000      3.94526e-08
471.000      9.70214e-09
472.000      2.25724e-09
473.000      4.96825e-10
474.000      1.03454e-10
475.000      2.03803e-11
476.000      3.79831e-12
477.000      6.69711e-13
478.000      1.11713e-13
479.000      1.76293e-14
480.000      2.63199e-15
481.000      3.71751e-16
482.000      4.96750e-17
483.000      6.27973e-18
484.000      7.51037e-19
485.000      8.49766e-20
486.000      9.09610e-21
487.000      9.21146e-22
488.000      8.82510e-23
489.000      7.99886e-24
490.000      6.85890e-25
491.000      5.56414e-26
492.000      4.27031e-27
493.000      3.10055e-28
494.000      2.12978e-29
495.000      1.38404e-30
496.000      8.50904e-32
497.000      4.94914e-33
498.000      2.72331e-34
499.000      1.41769e-35
500.000      6.98206e-37
