# Gaussian folded, width=10 cm^-1
# [cm^-1] arbitrary
0.000      3.00000e+00
1.000      2.91796e+00
2.000      2.68508e+00
3.000      2.33749e+00
4.000      1.92514e+00
5.000      1.50000e+00
6.000      1.10570e+00
7.000      7.71085e-01
8.000      5.08727e-01
9.000      3.17530e-01
10.000      1.87501e-01
11.000      1.04748e-01
12.000      5.53658e-02
13.000      2.77016e-02
14.000      1.31611e-02
15.000      6.05714e-03
16.000      3.02671e-03
17.000      2.42242e-03
18.000      3.92090e-03
19.000      8.47090e-03
20.000      1.86355e-02
21.000      3.93299e-02
22.000      7.88688e-02
23.000      1.50072e-01
24.000      2.70939e-01
25.000      4.64158e-01
26.000      7.54642e-01
27.000      1.16454e+00
28.000      1.70591e+00
29.000      2.37246e+00
30.000      3.13274e+00
31.000      3.92795e+00
32.000      4.67688e+00
33.000      5.28829e+00
34.000      5.67879e+00
35.000      5.79142e+00
36.000      5.60921e+00
37.000      5.15942e+00
38.000      4.50701e+00
39.000      3.73951e+00
40.000      2.94834e+00
41.000      2.21231e+00
42.000      1.58745e+00
43.000      1.10484e+00
44.000      7.75285e-01
45.000      5.97643e-01
46.000      5.67382e-01
47.000      6.82326e-01
48.000      9.43884e-01
49.000      1.35352e+00
50.000      1.90567e+00
51.000      2.57949e+00
52.000      3.33261e+00
53.000      4.09993e+00
54.000      4.79937e+00
55.000      5.34440e+00
56.000      5.66074e+00
57.000      5.70261e+00
58.000      5.46347e+00
59.000      4.97790e+00
60.000      4.31387e+00
61.000      3.55795e+00
62.000      2.79824e+00
63.000      2.10987e+00
64.000      1.54661e+00
65.000      1.13948e+00
66.000      9.00750e-01
67.000      8.30493e-01
68.000      9.22423e-01
69.000      1.16707e+00
70.000      1.55162e+00
71.000      2.05727e+00
72.000      2.65593e+00
73.000      3.30854e+00
74.000      3.96654e+00
75.000      4.57757e+00
76.000      5.09463e+00
77.000      5.48679e+00
78.000      5.74854e+00
79.000      5.90453e+00
80.000      6.00776e+00
81.000      6.13064e+00
82.000      6.35089e+00
83.000      6.73557e+00
84.000      7.32737e+00
85.000      8.13646e+00
86.000      9.13927e+00
87.000      1.02837e+01
88.000      1.14985e+01
89.000      1.27034e+01
90.000      1.38188e+01
91.000      1.47722e+01
92.000      1.55025e+01
93.000      1.59632e+01
94.000      1.61240e+01
95.000      1.59744e+01
96.000      1.55260e+01
97.000      1.48144e+01
98.000      1.38990e+01
99.000      1.28583e+01
100.000      1.17810e+01
101.000      1.07544e+01
102.000      9.85271e+00
103.000      9.12788e+00
104.000      8.60727e+00
105.000      8.29688e+00
106.000      8.18912e+00
107.000      8.27142e+00
108.000      8.53212e+00
109.000      8.96161e+00
110.000      9.54898e+00
111.000      1.02763e+01
112.000      1.11133e+01
113.000      1.20161e+01
114.000      1.29293e+01
115.000      1.37936e+01
116.000      1.45550e+01
117.000      1.51735e+01
118.000      1.56303e+01
119.000      1.59278e+01
120.000      1.60867e+01
121.000      1.61378e+01
122.000      1.61124e+01
123.000      1.60353e+01
124.000      1.59212e+01
125.000      1.57757e+01
126.000      1.55995e+01
127.000      1.53934e+01
128.000      1.51611e+01
129.000      1.49098e+01
130.000      1.46477e+01
131.000      1.43796e+01
132.000      1.41044e+01
133.000      1.38134e+01
134.000      1.34925e+01
135.000      1.31269e+01
136.000      1.27067e+01
137.000      1.22322e+01
138.000      1.17161e+01
139.000      1.11818e+01
140.000      1.06577e+01
141.000      1.01699e+01
142.000      9.73496e+00
143.000      9.35557e+00
144.000      9.02064e+00
145.000      8.70974e+00
146.000      8.40030e+00
147.000      8.07532e+00
148.000      7.72934e+00
149.000      7.37093e+00
150.000      7.02101e+00
151.000      6.70752e+00
152.000      6.45767e+00
153.000      6.28988e+00
154.000      6.20752e+00
155.000      6.19625e+00
156.000      6.22602e+00
157.000      6.25743e+00
158.000      6.25112e+00
159.000      6.17782e+00
160.000      6.02630e+00
161.000      5.80683e+00
162.000      5.54902e+00
163.000      5.29460e+00
164.000      5.08743e+00
165.000      4.96380e+00
166.000      4.94617e+00
167.000      5.04169e+00
168.000      5.24529e+00
169.000      5.54522e+00
170.000      5.92825e+00
171.000      6.38243e+00
172.000      6.89667e+00
173.000      7.45833e+00
174.000      8.05091e+00
175.000      8.65383e+00
176.000      9.24498e+00
177.000      9.80532e+00
178.000      1.03233e+01
179.000      1.07971e+01
180.000      1.12337e+01
181.000      1.16454e+01
182.000      1.20447e+01
183.000      1.24406e+01
184.000      1.28373e+01
185.000      1.32344e+01
186.000      1.36296e+01
187.000      1.40196e+01
188.000      1.44020e+01
189.000      1.47742e+01
190.000      1.51334e+01
191.000      1.54768e+01
192.000      1.58029e+01
193.000      1.61134e+01
194.000      1.64154e+01
195.000      1.67223e+01
196.000      1.70527e+01
197.000      1.74276e+01
198.000      1.78653e+01
199.000      1.83760e+01
200.000      1.89557e+01
201.000      1.95826e+01
202.000      2.02157e+01
203.000      2.07982e+01
204.000      2.12640e+01
205.000      2.15478e+01
206.000      2.15956e+01
207.000      2.13744e+01
208.000      2.08779e+01
209.000      2.01290e+01
210.000      1.91781e+01
211.000      1.80979e+01
212.000      1.69758e+01
213.000      1.59036e+01
214.000      1.49667e+01
215.000      1.42327e+01
216.000      1.37428e+01
217.000      1.35050e+01
218.000      1.34944e+01
219.000      1.36568e+01
220.000      1.39186e+01
221.000      1.41992e+01
222.000      1.44241e+01
223.000      1.45366e+01
224.000      1.45051e+01
225.000      1.43255e+01
226.000      1.40180e+01
227.000      1.36203e+01
228.000      1.31797e+01
229.000      1.27462e+01
230.000      1.23674e+01
231.000      1.20879e+01
232.000      1.19485e+01
233.000      1.19850e+01
234.000      1.22250e+01
235.000      1.26811e+01
236.000      1.33448e+01
237.000      1.41813e+01
238.000      1.51302e+01
239.000      1.61118e+01
240.000      1.70378e+01
241.000      1.78250e+01
242.000      1.84068e+01
243.000      1.87424e+01
244.000      1.88205e+01
245.000      1.86583e+01
246.000      1.82969e+01
247.000      1.77936e+01
248.000      1.72117e+01
249.000      1.66099e+01
250.000      1.60325e+01
251.000      1.55015e+01
252.000      1.50139e+01
253.000      1.45437e+01
254.000      1.40499e+01
255.000      1.34879e+01
256.000      1.28223e+01
257.000      1.20368e+01
258.000      1.11404e+01
259.000      1.01668e+01
260.000      9.16722e+00
261.000      8.20009e+00
262.000      7.31866e+00
263.000      6.56156e+00
264.000      5.94841e+00
265.000      5.48125e+00
266.000      5.15078e+00
267.000      4.94449e+00
268.000      4.85360e+00
269.000      4.87662e+00
270.000      5.01896e+00
271.000      5.28944e+00
272.000      5.69525e+00
273.000      6.23691e+00
274.000      6.90419e+00
275.000      7.67373e+00
276.000      8.50898e+00
277.000      9.36266e+00
278.000      1.01819e+01
279.000      1.09150e+01
280.000      1.15184e+01
281.000      1.19620e+01
282.000      1.22322e+01
283.000      1.23307e+01
284.000      1.22725e+01
285.000      1.20804e+01
286.000      1.17809e+01
287.000      1.14003e+01
288.000      1.09623e+01
289.000      1.04872e+01
290.000      9.99226e+00
291.000      9.49224e+00
292.000      8.99877e+00
293.000      8.51866e+00
294.000      8.05160e+00
295.000      7.58894e+00
296.000      7.11511e+00
297.000      6.61241e+00
298.000      6.06797e+00
299.000      5.48032e+00
300.000      4.86268e+00
301.000      4.24122e+00
302.000      3.64883e+00
303.000      3.11706e+00
304.000      2.66930e+00
305.000      2.31762e+00
306.000      2.06371e+00
307.000      1.90219e+00
308.000      1.82403e+00
309.000      1.81845e+00
310.000      1.87301e+00
311.000      1.97307e+00
312.000      2.10240e+00
313.000      2.24582e+00
314.000      2.39352e+00
315.000      2.54516e+00
316.000      2.71179e+00
317.000      2.91374e+00
318.000      3.17482e+00
319.000      3.51425e+00
320.000      3.93947e+00
321.000      4.44236e+00
322.000      5.00073e+00
323.000      5.58476e+00
324.000      6.16642e+00
325.000      6.72864e+00
326.000      7.27102e+00
327.000      7.80991e+00
328.000      8.37258e+00
329.000      8.98711e+00
330.000      9.67141e+00
331.000      1.04248e+01
332.000      1.12254e+01
333.000      1.20337e+01
334.000      1.28016e+01
335.000      1.34836e+01
336.000      1.40462e+01
337.000      1.44727e+01
338.000      1.47626e+01
339.000      1.49258e+01
340.000      1.49758e+01
341.000      1.49235e+01
342.000      1.47742e+01
343.000      1.45285e+01
344.000      1.41850e+01
345.000      1.37448e+01
346.000      1.32140e+01
347.000      1.26063e+01
348.000      1.19418e+01
349.000      1.12465e+01
350.000      1.05493e+01
351.000      9.88027e+00
352.000      9.26800e+00
353.000      8.73727e+00
354.000      8.30682e+00
355.000      7.98720e+00
356.000      7.77900e+00
357.000      7.67194e+00
358.000      7.64516e+00
359.000      7.66919e+00
360.000      7.70942e+00
361.000      7.73078e+00
362.000      7.70284e+00
363.000      7.60430e+00
364.000      7.42594e+00
365.000      7.17103e+00
366.000      6.85313e+00
367.000      6.49190e+00
368.000      6.10808e+00
369.000      5.71954e+00
370.000      5.33937e+00
371.000      4.97651e+00
372.000      4.63794e+00
373.000      4.33088e+00
374.000      4.06362e+00
375.000      3.84415e+00
376.000      3.67704e+00
377.000      3.56009e+00
378.000      3.48232e+00
379.000      3.42465e+00
380.000      3.36367e+00
381.000      3.27757e+00
382.000      3.15252e+00
383.000      2.98733e+00
384.000      2.79454e+00
385.000      2.59742e+00
386.000      2.42318e+00
387.000      2.29452e+00
388.000      2.22220e+00
389.000      2.20102e+00
390.000      2.21095e+00
391.000      2.22311e+00
392.000      2.20877e+00
393.000      2.14822e+00
394.000      2.03665e+00
395.000      1.88484e+00
396.000      1.71482e+00
397.000      1.55199e+00
398.000      1.41675e+00
399.000      1.31843e+00
400.000      1.25334e+00
401.000      1.20733e+00
402.000      1.16143e+00
403.000      1.09838e+00
404.000      1.00791e+00
405.000      8.88997e-01
406.000      7.49006e-01
407.000      6.00465e-01
408.000      4.56968e-01
409.000      3.29661e-01
410.000      2.25256e-01
411.000      1.45714e-01
412.000      8.92107e-02
413.000      5.16836e-02
414.000      2.83313e-02
415.000      1.46937e-02
416.000      7.21002e-03
417.000      3.34712e-03
418.000      1.47004e-03
419.000      6.10816e-04
420.000      2.40110e-04
421.000      8.92958e-05
422.000      3.14173e-05
423.000      1.04574e-05
424.000      3.29306e-06
425.000      9.81052e-07
426.000      2.76504e-07
427.000      7.37274e-08
428.000      1.85983e-08
429.000      4.43851e-09
430.000      1.00211e-09
431.000      2.14050e-10
432.000      4.32544e-11
433.000      8.26921e-12
434.000      1.49560e-12
435.000      2.55907e-13
436.000      4.14256e-14
437.000      6.34414e-15
438.000      9.19165e-16
439.000      1.25989e-16
440.000      1.63376e-17
441.000      2.00430e-18
442.000      2.32624e-19
443.000      2.55425e-20
444.000      2.65332e-21
445.000      2.60756e-22
446.000      2.42436e-23
447.000      2.13244e-24
448.000      1.77449e-25
449.000      1.39697e-26
450.000      1.04045e-27
451.000      7.33112e-29
452.000      4.88695e-30
453.000      3.08193e-31
454.000      1.83876e-32
455.000      1.03788e-33
456.000      5.54222e-35
457.000      2.79988e-36
458.000      1.33817e-37
459.000      6.05067e-39
460.000      2.58828e-40
461.000      1.04746e-41
462.000      4.01034e-43
463.000      1.45259e-44
464.000      4.97761e-46
465.000      1.61368e-47
466.000      4.94916e-49
467.000      1.43603e-50
468.000      3.94196e-52
469.000      1.02371e-53
470.000      2.51515e-55
471.000      5.84609e-57
472.000      1.28554e-58
473.000      2.67437e-60
474.000      5.26353e-62
475.000      9.80052e-64
476.000      1.72639e-65
477.000      2.87704e-67
478.000      4.53599e-69
479.000      6.76573e-71
480.000      9.54718e-73
481.000      1.27454e-74
482.000      1.60971e-76
483.000      1.92336e-78
484.000      2.17416e-80
485.000      2.32510e-82
486.000      2.35238e-84
487.000      2.25159e-86
488.000      2.03888e-88
489.000      1.74667e-90
490.000      1.41562e-92
491.000      1.08543e-94
492.000      7.87358e-97
493.000      5.40333e-99
494.000     3.50807e-101
495.000     2.15473e-103
496.000     1.25209e-105
497.000     6.88326e-108
498.000     3.57990e-110
499.000     1.76143e-112
500.000     8.19933e-115
