# Gaussian folded, width=10 cm^-1
# [cm^-1] arbitrary
0.000      3.00000e+00
1.000      2.91796e+00
2.000      2.68508e+00
3.000      2.33749e+00
4.000      1.92514e+00
5.000      1.50000e+00
6.000      1.10570e+00
7.000      7.71085e-01
8.000      5.08727e-01
9.000      3.17529e-01
10.000      1.87500e-01
11.000      1.04746e-01
12.000      5.53590e-02
13.000      2.76795e-02
14.000      1.30933e-02
15.000      5.85975e-03
16.000      2.48207e-03
17.000      9.98430e-04
18.000      3.92553e-04
19.000      1.85533e-04
20.000      1.96645e-04
21.000      4.41058e-04
22.000      1.14574e-03
23.000      2.89487e-03
24.000      6.94971e-03
25.000      1.58105e-02
26.000      3.40772e-02
27.000      6.95886e-02
28.000      1.34649e-01
29.000      2.46890e-01
30.000      4.29023e-01
31.000      7.06619e-01
32.000      1.10325e+00
33.000      1.63308e+00
34.000      2.29218e+00
35.000      3.05121e+00
36.000      3.85261e+00
37.000      4.61509e+00
38.000      5.24610e+00
39.000      5.65999e+00
40.000      5.79714e+00
41.000      5.63807e+00
42.000      5.20792e+00
43.000      4.56998e+00
44.000      3.81043e+00
45.000      3.01948e+00
46.000      2.27443e+00
47.000      1.62880e+00
48.000      1.10916e+00
49.000      7.18414e-01
50.000      4.42996e-01
51.000      2.61004e-01
52.000      1.49185e-01
53.000      8.77724e-02
54.000      6.32067e-02
55.000      6.93455e-02
56.000      1.07809e-01
57.000      1.87812e-01
58.000      3.25360e-01
59.000      5.41305e-01
60.000      8.57636e-01
61.000      1.29175e+00
62.000      1.84924e+00
63.000      2.51670e+00
64.000      3.25702e+00
65.000      4.00957e+00
66.000      4.69678e+00
67.000      5.23676e+00
68.000      5.55917e+00
69.000      5.62029e+00
70.000      5.41269e+00
71.000      4.96667e+00
72.000      4.34323e+00
73.000      3.62078e+00
74.000      2.87977e+00
75.000      2.18965e+00
76.000      1.60088e+00
77.000      1.14339e+00
78.000      8.29961e-01
79.000      6.62588e-01
80.000      6.38714e-01
81.000      7.55239e-01
82.000      1.00902e+00
83.000      1.39399e+00
84.000      1.89623e+00
85.000      2.48914e+00
86.000      3.13113e+00
87.000      3.76743e+00
88.000      4.33662e+00
89.000      4.78044e+00
90.000      5.05475e+00
91.000      5.13854e+00
92.000      5.03877e+00
93.000      4.79026e+00
94.000      4.45090e+00
95.000      4.09385e+00
96.000      3.79808e+00
97.000      3.63849e+00
98.000      3.67617e+00
99.000      3.94966e+00
100.000      4.46831e+00
101.000      5.20952e+00
102.000      6.12169e+00
103.000      7.13320e+00
104.000      8.16623e+00
105.000      9.15181e+00
106.000      1.00417e+01
107.000      1.08137e+01
108.000      1.14684e+01
109.000      1.20196e+01
110.000      1.24816e+01
111.000      1.28588e+01
112.000      1.31397e+01
113.000      1.32981e+01
114.000      1.32998e+01
115.000      1.31117e+01
116.000      1.27115e+01
117.000      1.20952e+01
118.000      1.12812e+01
119.000      1.03114e+01
120.000      9.24847e+00
121.000      8.17118e+00
122.000      7.16701e+00
123.000      6.32301e+00
124.000      5.71577e+00
125.000      5.40165e+00
126.000      5.40891e+00
127.000      5.73347e+00
128.000      6.33948e+00
129.000      7.16539e+00
130.000      8.13478e+00
131.000      9.16986e+00
132.000      1.02046e+01
133.000      1.11938e+01
134.000      1.21155e+01
135.000      1.29662e+01
136.000      1.37490e+01
137.000      1.44622e+01
138.000      1.50892e+01
139.000      1.55966e+01
140.000      1.59398e+01
141.000      1.60739e+01
142.000      1.59674e+01
143.000      1.56115e+01
144.000      1.50254e+01
145.000      1.42548e+01
146.000      1.33650e+01
147.000      1.24311e+01
148.000      1.15271e+01
149.000      1.07158e+01
150.000      1.00416e+01
151.000      9.52830e+00
152.000      9.18019e+00
153.000      8.98793e+00
154.000      8.93520e+00
155.000      9.00453e+00
156.000      9.18015e+00
157.000      9.44722e+00
158.000      9.78850e+00
159.000      1.01802e+01
160.000      1.05891e+01
161.000      1.09723e+01
162.000      1.12797e+01
163.000      1.14595e+01
164.000      1.14648e+01
165.000      1.12610e+01
166.000      1.08323e+01
167.000      1.01853e+01
168.000      9.34881e+00
169.000      8.36962e+00
170.000      7.30532e+00
171.000      6.21622e+00
172.000      5.15874e+00
173.000      4.18168e+00
174.000      3.32532e+00
175.000      2.62238e+00
176.000      2.09956e+00
177.000      1.77832e+00
178.000      1.67450e+00
179.000      1.79656e+00
180.000      2.14251e+00
181.000      2.69631e+00
182.000      3.42451e+00
183.000      4.27471e+00
184.000      5.17721e+00
185.000      6.05082e+00
186.000      6.81264e+00
187.000      7.39012e+00
188.000      7.73236e+00
189.000      7.81782e+00
190.000      7.65620e+00
191.000      7.28425e+00
192.000      6.75737e+00
193.000      6.13949e+00
194.000      5.49409e+00
195.000      4.87765e+00
196.000      4.33556e+00
197.000      3.89970e+00
198.000      3.58673e+00
199.000      3.39715e+00
200.000      3.31560e+00
201.000      3.31315e+00
202.000      3.35196e+00
203.000      3.39163e+00
204.000      3.39583e+00
205.000      3.33786e+00
206.000      3.20370e+00
207.000      2.99237e+00
208.000      2.71394e+00
209.000      2.38623e+00
210.000      2.03111e+00
211.000      1.67109e+00
212.000      1.32669e+00
213.000      1.01437e+00
214.000      7.45408e-01
215.000      5.25351e-01
216.000      3.54393e-01
217.000      2.28392e-01
218.000      1.40381e-01
219.000      8.21724e-02
220.000      4.57500e-02
221.000      2.42019e-02
222.000      1.21542e-02
223.000      5.79051e-03
224.000      2.61563e-03
225.000      1.11971e-03
226.000      4.54097e-04
227.000      1.74414e-04
228.000      6.34310e-05
229.000      2.18390e-05
230.000      7.11727e-06
231.000      2.19530e-06
232.000      6.40820e-07
233.000      1.77015e-07
234.000      4.62690e-08
235.000      1.14435e-08
236.000      2.67794e-09
237.000      5.92933e-10
238.000      1.24212e-10
239.000      2.46186e-11
240.000      4.61642e-12
241.000      8.18996e-13
242.000      1.37465e-13
243.000      2.18318e-14
244.000      3.30580e-15
245.000      6.71212e-16
246.000      1.56739e-15
247.000      1.04512e-14
248.000      6.85704e-14
249.000      4.25942e-13
250.000      2.50317e-12
251.000      1.39172e-11
252.000      7.32042e-11
253.000      3.64285e-10
254.000      1.71502e-09
255.000      7.63867e-09
256.000      3.21878e-08
257.000      1.28318e-07
258.000      4.83960e-07
259.000      1.72687e-06
260.000      5.82960e-06
261.000      1.86188e-05
262.000      5.62604e-05
263.000      1.60843e-04
264.000      4.35069e-04
265.000      1.11350e-03
266.000      2.69661e-03
267.000      6.17987e-03
268.000      1.34036e-02
269.000      2.75181e-02
270.000      5.34902e-02
271.000      9.84785e-02
272.000      1.71807e-01
273.000      2.84247e-01
274.000      4.46443e-01
275.000      6.66676e-01
276.000      9.48574e-01
277.000      1.28978e+00
278.000      1.68249e+00
279.000      2.11613e+00
280.000      2.58129e+00
281.000      3.07289e+00
282.000      3.59024e+00
283.000      4.13292e+00
284.000      4.69317e+00
285.000      5.24845e+00
286.000      5.75868e+00
287.000      6.17176e+00
288.000      6.43776e+00
289.000      6.52823e+00
290.000      6.45362e+00
291.000      6.27208e+00
292.000      6.08489e+00
293.000      6.01867e+00
294.000      6.19867e+00
295.000      6.72048e+00
296.000      7.62723e+00
297.000      8.89777e+00
298.000      1.04477e+01
299.000      1.21417e+01
300.000      1.38143e+01
301.000      1.52938e+01
302.000      1.64256e+01
303.000      1.70928e+01
304.000      1.72325e+01
305.000      1.68454e+01
306.000      1.59998e+01
307.000      1.48257e+01
308.000      1.35000e+01
309.000      1.22208e+01
310.000      1.11754e+01
311.000      1.05073e+01
312.000      1.02884e+01
313.000      1.05050e+01
314.000      1.10607e+01
315.000      1.17975e+01
316.000      1.25313e+01
317.000      1.30939e+01
318.000      1.33741e+01
319.000      1.33482e+01
320.000      1.30929e+01
321.000      1.27780e+01
322.000      1.26389e+01
323.000      1.29342e+01
324.000      1.38961e+01
325.000      1.56838e+01
326.000      1.83466e+01
327.000      2.18066e+01
328.000      2.58621e+01
329.000      3.02122e+01
330.000      3.44994e+01
331.000      3.83608e+01
332.000      4.14795e+01
333.000      4.36261e+01
334.000      4.46840e+01
335.000      4.46545e+01
336.000      4.36451e+01
337.000      4.18448e+01
338.000      3.94932e+01
339.000      3.68484e+01
340.000      3.41581e+01
341.000      3.16354e+01
342.000      2.94430e+01
343.000      2.76867e+01
344.000      2.64190e+01
345.000      2.56502e+01
346.000      2.53633e+01
347.000      2.55259e+01
348.000      2.60951e+01
349.000      2.70140e+01
350.000      2.82040e+01
351.000      2.95578e+01
352.000      3.09390e+01
353.000      3.21917e+01
354.000      3.31574e+01
355.000      3.36951e+01
356.000      3.36993e+01
357.000      3.31115e+01
358.000      3.19253e+01
359.000      3.01842e+01
360.000      2.79753e+01
361.000      2.54188e+01
362.000      2.26557e+01
363.000      1.98335e+01
364.000      1.70914e+01
365.000      1.45471e+01
366.000      1.22872e+01
367.000      1.03622e+01
368.000      8.78706e+00
369.000      7.54727e+00
370.000      6.60749e+00
371.000      5.92244e+00
372.000      5.44701e+00
373.000      5.14397e+00
374.000      4.98827e+00
375.000      4.96777e+00
376.000      5.08156e+00
377.000      5.33729e+00
378.000      5.74900e+00
379.000      6.33561e+00
380.000      7.11881e+00
381.000      8.11859e+00
382.000      9.34487e+00
383.000      1.07865e+01
384.000      1.24015e+01
385.000      1.41132e+01
386.000      1.58185e+01
387.000      1.74054e+01
388.000      1.87780e+01
389.000      1.98772e+01
390.000      2.06897e+01
391.000      2.12412e+01
392.000      2.15757e+01
393.000      2.17312e+01
394.000      2.17198e+01
395.000      2.15221e+01
396.000      2.10947e+01
397.000      2.03886e+01
398.000      1.93693e+01
399.000      1.80329e+01
400.000      1.64128e+01
401.000      1.45785e+01
402.000      1.26263e+01
403.000      1.06664e+01
404.000      8.80816e+00
405.000      7.14797e+00
406.000      5.75827e+00
407.000      4.68120e+00
408.000      3.92591e+00
409.000      3.47000e+00
410.000      3.26460e+00
411.000      3.24257e+00
412.000      3.32864e+00
413.000      3.45006e+00
414.000      3.54602e+00
415.000      3.57435e+00
416.000      3.51449e+00
417.000      3.36657e+00
418.000      3.14711e+00
419.000      2.88257e+00
420.000      2.60200e+00
421.000      2.33039e+00
422.000      2.08404e+00
423.000      1.86880e+00
424.000      1.68161e+00
425.000      1.51448e+00
426.000      1.35969e+00
427.000      1.21411e+00
428.000      1.08117e+00
429.000      9.69858e-01
430.000      8.91133e-01
431.000      8.53141e-01
432.000      8.57046e-01
433.000      8.94965e-01
434.000      9.50773e-01
435.000      1.00359e+00
436.000      1.03282e+00
437.000      1.02323e+00
438.000      9.68442e-01
439.000      8.71785e-01
440.000      7.44596e-01
441.000      6.02598e-01
442.000      4.61762e-01
443.000      3.34906e-01
444.000      2.29853e-01
445.000      1.49262e-01
446.000      9.17063e-02
447.000      5.33067e-02
448.000      2.93151e-02
449.000      1.52519e-02
450.000      7.50714e-03
451.000      3.49579e-03
452.000      1.54005e-03
453.000      6.41861e-04
454.000      2.53084e-04
455.000      9.44078e-05
456.000      3.33171e-05
457.000      1.11236e-05
458.000      3.51351e-06
459.000      1.04991e-06
460.000      2.96814e-07
461.000      7.93838e-08
462.000      2.00862e-08
463.000      4.80818e-09
464.000      1.08888e-09
465.000      2.33292e-10
466.000      4.72864e-11
467.000      9.06756e-12
468.000      1.64498e-12
469.000      2.82326e-13
470.000      4.58413e-14
471.000      7.04176e-15
472.000      1.02335e-15
473.000      1.40696e-16
474.000      1.83003e-17
475.000      2.25192e-18
476.000      2.62159e-19
477.000      2.88732e-20
478.000      3.00845e-21
479.000      2.96556e-22
480.000      2.76560e-23
481.000      2.44000e-24
482.000      2.03661e-25
483.000      1.60821e-26
484.000      1.20142e-27
485.000      8.49115e-29
486.000      5.67746e-30
487.000      3.59137e-31
488.000      2.14923e-32
489.000      1.21681e-33
490.000      6.51753e-35
491.000      3.30262e-36
492.000      1.58326e-37
493.000      7.18065e-39
494.000      3.08101e-40
495.000      1.25066e-41
496.000      4.80290e-43
497.000      1.74496e-44
498.000      5.99770e-46
499.000      1.95030e-47
500.000      5.99979e-49
