# Gaussian folded, width=10 cm^-1
# [cm^-1] arbitrary
0.000      3.00000e+00
1.000      2.91796e+00
2.000      2.68508e+00
3.000      2.33749e+00
4.000      1.92514e+00
5.000      1.50000e+00
6.000      1.10570e+00
7.000      7.71085e-01
8.000      5.08727e-01
9.000      3.17530e-01
10.000      1.87500e-01
11.000      1.04746e-01
12.000      5.53607e-02
13.000      2.76854e-02
14.000      1.31128e-02
15.000      5.92068e-03
16.000      2.66253e-03
17.000      1.50426e-03
18.000      1.73454e-03
19.000      3.55509e-03
20.000      8.20277e-03
21.000      1.84394e-02
22.000      3.94206e-02
23.000      7.98709e-02
24.000      1.53304e-01
25.000      2.78752e-01
26.000      4.80196e-01
27.000      7.83784e-01
28.000      1.21227e+00
29.000      1.77696e+00
30.000      2.46882e+00
31.000      3.25160e+00
32.000      4.06041e+00
33.000      4.80820e+00
34.000      5.40023e+00
35.000      5.75367e+00
36.000      5.81660e+00
37.000      5.58054e+00
38.000      5.08233e+00
39.000      4.39471e+00
40.000      3.60907e+00
41.000      2.81595e+00
42.000      2.08912e+00
43.000      1.47685e+00
44.000      1.00133e+00
45.000      6.64377e-01
46.000      4.56496e-01
47.000      3.65965e-01
48.000      3.85720e-01
49.000      5.16541e-01
50.000      7.66108e-01
51.000      1.14418e+00
52.000      1.65495e+00
53.000      2.28843e+00
54.000      3.01351e+00
55.000      3.77535e+00
56.000      4.49933e+00
57.000      5.10172e+00
58.000      5.50509e+00
59.000      5.65455e+00
60.000      5.52991e+00
61.000      5.15017e+00
62.000      4.56895e+00
63.000      3.86259e+00
64.000      3.11457e+00
65.000      2.40109e+00
66.000      1.78132e+00
67.000      1.29393e+00
68.000      9.59497e-01
69.000      7.86247e-01
70.000      7.76316e-01
71.000      9.29763e-01
72.000      1.24482e+00
73.000      1.71435e+00
74.000      2.31999e+00
75.000      3.02662e+00
76.000      3.78031e+00
77.000      4.51192e+00
78.000      5.14731e+00
79.000      5.62254e+00
80.000      5.90013e+00
81.000      5.98179e+00
82.000      5.91273e+00
83.000      5.77556e+00
84.000      5.67447e+00
85.000      5.71379e+00
86.000      5.97666e+00
87.000      6.50950e+00
88.000      7.31572e+00
89.000      8.35883e+00
90.000      9.57245e+00
91.000      1.08728e+01
92.000      1.21702e+01
93.000      1.33767e+01
94.000      1.44120e+01
95.000      1.52070e+01
96.000      1.57083e+01
97.000      1.58831e+01
98.000      1.57235e+01
99.000      1.52493e+01
100.000      1.45055e+01
101.000      1.35576e+01
102.000      1.24827e+01
103.000      1.13610e+01
104.000      1.02678e+01
105.000      9.26825e+00
106.000      8.41504e+00
107.000      7.74814e+00
108.000      7.29692e+00
109.000      7.08292e+00
110.000      7.12237e+00
111.000      7.42706e+00
112.000      8.00252e+00
113.000      8.84343e+00
114.000      9.92725e+00
115.000      1.12086e+01
116.000      1.26169e+01
117.000      1.40601e+01
118.000      1.54344e+01
119.000      1.66384e+01
120.000      1.75883e+01
121.000      1.82303e+01
122.000      1.85455e+01
123.000      1.85486e+01
124.000      1.82803e+01
125.000      1.77969e+01
126.000      1.71599e+01
127.000      1.64282e+01
128.000      1.56536e+01
129.000      1.48792e+01
130.000      1.41392e+01
131.000      1.34597e+01
132.000      1.28603e+01
133.000      1.23553e+01
134.000      1.19547e+01
135.000      1.16657e+01
136.000      1.14925e+01
137.000      1.14349e+01
138.000      1.14866e+01
139.000      1.16318e+01
140.000      1.18442e+01
141.000      1.20866e+01
142.000      1.23143e+01
143.000      1.24810e+01
144.000      1.25459e+01
145.000      1.24804e+01
146.000      1.22718e+01
147.000      1.19245e+01
148.000      1.14562e+01
149.000      1.08924e+01
150.000      1.02599e+01
151.000      9.58135e+00
152.000      8.87146e+00
153.000      8.13646e+00
154.000      7.37636e+00
155.000      6.58961e+00
156.000      5.77860e+00
157.000      4.95437e+00
158.000      4.13865e+00
159.000      3.36235e+00
160.000      2.66091e+00
161.000      2.06798e+00
162.000      1.60941e+00
163.000      1.29928e+00
164.000      1.13869e+00
165.000      1.11702e+00
166.000      1.21512e+00
167.000      1.40918e+00
168.000      1.67470e+00
169.000      1.98989e+00
170.000      2.33811e+00
171.000      2.70911e+00
172.000      3.09888e+00
173.000      3.50809e+00
174.000      3.93940e+00
175.000      4.39404e+00
176.000      4.86866e+00
177.000      5.35339e+00
178.000      5.83232e+00
179.000      6.28660e+00
180.000      6.69969e+00
181.000      7.06300e+00
182.000      7.37964e+00
183.000      7.66458e+00
184.000      7.94082e+00
185.000      8.23267e+00
186.000      8.55898e+00
187.000      8.92862e+00
188.000      9.34020e+00
189.000      9.78536e+00
190.000      1.02541e+01
191.000      1.07390e+01
192.000      1.12366e+01
193.000      1.17451e+01
194.000      1.22590e+01
195.000      1.27647e+01
196.000      1.32379e+01
197.000      1.36458e+01
198.000      1.39532e+01
199.000      1.41312e+01
200.000      1.41650e+01
201.000      1.40591e+01
202.000      1.38380e+01
203.000      1.35418e+01
204.000      1.32181e+01
205.000      1.29126e+01
206.000      1.26615e+01
207.000      1.24862e+01
208.000      1.23920e+01
209.000      1.23702e+01
210.000      1.24023e+01
211.000      1.24649e+01
212.000      1.25340e+01
213.000      1.25882e+01
214.000      1.26102e+01
215.000      1.25880e+01
216.000      1.25158e+01
217.000      1.23962e+01
218.000      1.22420e+01
219.000      1.20783e+01
220.000      1.19414e+01
221.000      1.18748e+01
222.000      1.19231e+01
223.000      1.21235e+01
224.000      1.24982e+01
225.000      1.30490e+01
226.000      1.37557e+01
227.000      1.45777e+01
228.000      1.54575e+01
229.000      1.63272e+01
230.000      1.71153e+01
231.000      1.77548e+01
232.000      1.81912e+01
233.000      1.83897e+01
234.000      1.83407e+01
235.000      1.80619e+01
236.000      1.75963e+01
237.000      1.70053e+01
238.000      1.63577e+01
239.000      1.57178e+01
240.000      1.51343e+01
241.000      1.46334e+01
242.000      1.42184e+01
243.000      1.38745e+01
244.000      1.35778e+01
245.000      1.33051e+01
246.000      1.30402e+01
247.000      1.27762e+01
248.000      1.25129e+01
249.000      1.22516e+01
250.000      1.19887e+01
251.000      1.17128e+01
252.000      1.14050e+01
253.000      1.10431e+01
254.000      1.06088e+01
255.000      1.00943e+01
256.000      9.50784e+00
257.000      8.87417e+00
258.000      8.23099e+00
259.000      7.62145e+00
260.000      7.08486e+00
261.000      6.64832e+00
262.000      6.32134e+00
263.000      6.09471e+00
264.000      5.94312e+00
265.000      5.83048e+00
266.000      5.71624e+00
267.000      5.56161e+00
268.000      5.33497e+00
269.000      5.01633e+00
270.000      4.60023e+00
271.000      4.09687e+00
272.000      3.53070e+00
273.000      2.93663e+00
274.000      2.35425e+00
275.000      1.82154e+00
276.000      1.36949e+00
277.000      1.01886e+00
278.000      7.79425e-01
279.000      6.51194e-01
280.000      6.26756e-01
281.000      6.93771e-01
282.000      8.37136e-01
283.000      1.04080e+00
284.000      1.28938e+00
285.000      1.56977e+00
286.000      1.87222e+00
287.000      2.19073e+00
288.000      2.52222e+00
289.000      2.86473e+00
290.000      3.21534e+00
291.000      3.56882e+00
292.000      3.91759e+00
293.000      4.25322e+00
294.000      4.56846e+00
295.000      4.85871e+00
296.000      5.12207e+00
297.000      5.35749e+00
298.000      5.56206e+00
299.000      5.72852e+00
300.000      5.84455e+00
301.000      5.89451e+00
302.000      5.86348e+00
303.000      5.74240e+00
304.000      5.53289e+00
305.000      5.25007e+00
306.000      4.92272e+00
307.000      4.59055e+00
308.000      4.29932e+00
309.000      4.09492e+00
310.000      4.01730e+00
311.000      4.09521e+00
312.000      4.34222e+00
313.000      4.75424e+00
314.000      5.30903e+00
315.000      5.96802e+00
316.000      6.68085e+00
317.000      7.39271e+00
318.000      8.05356e+00
319.000      8.62790e+00
320.000      9.10259e+00
321.000      9.49081e+00
322.000      9.83071e+00
323.000      1.01787e+01
324.000      1.05992e+01
325.000      1.11528e+01
326.000      1.18862e+01
327.000      1.28248e+01
328.000      1.39704e+01
329.000      1.53008e+01
330.000      1.67732e+01
331.000      1.83291e+01
332.000      1.99003e+01
333.000      2.14154e+01
334.000      2.28074e+01
335.000      2.40199e+01
336.000      2.50128e+01
337.000      2.57651e+01
338.000      2.62746e+01
339.000      2.65543e+01
340.000      2.66267e+01
341.000      2.65165e+01
342.000      2.62437e+01
343.000      2.58201e+01
344.000      2.52480e+01
345.000      2.45242e+01
346.000      2.36457e+01
347.000      2.26165e+01
348.000      2.14528e+01
349.000      2.01854e+01
350.000      1.88582e+01
351.000      1.75234e+01
352.000      1.62352e+01
353.000      1.50433e+01
354.000      1.39867e+01
355.000      1.30907e+01
356.000      1.23649e+01
357.000      1.18041e+01
358.000      1.13896e+01
359.000      1.10927e+01
360.000      1.08777e+01
361.000      1.07059e+01
362.000      1.05391e+01
363.000      1.03438e+01
364.000      1.00937e+01
365.000      9.77314e+00
366.000      9.37737e+00
367.000      8.91251e+00
368.000      8.39271e+00
369.000      7.83612e+00
370.000      7.26075e+00
371.000      6.68157e+00
372.000      6.11010e+00
373.000      5.55662e+00
374.000      5.03396e+00
375.000      4.56126e+00
376.000      4.16594e+00
377.000      3.88297e+00
378.000      3.75143e+00
379.000      3.80903e+00
380.000      4.08555e+00
381.000      4.59598e+00
382.000      5.33421e+00
383.000      6.26809e+00
384.000      7.33729e+00
385.000      8.45532e+00
386.000      9.51689e+00
387.000      1.04104e+01
388.000      1.10337e+01
389.000      1.13106e+01
390.000      1.12040e+01
391.000      1.07217e+01
392.000      9.91544e+00
393.000      8.87062e+00
394.000      7.69084e+00
395.000      6.47992e+00
396.000      5.32585e+00
397.000      4.29007e+00
398.000      3.40403e+00
399.000      2.67274e+00
400.000      2.08316e+00
401.000      1.61410e+00
402.000      1.24472e+00
403.000      9.59442e-01
404.000      7.49217e-01
405.000      6.09776e-01
406.000      5.38418e-01
407.000      5.30633e-01
408.000      5.77541e-01
409.000      6.64697e-01
410.000      7.72558e-01
411.000      8.78620e-01
412.000      9.60863e-01
413.000      1.00172e+00
414.000      9.91467e-01
415.000      9.29878e-01
416.000      8.25680e-01
417.000      6.93843e-01
418.000      5.51691e-01
419.000      4.15029e-01
420.000      2.95388e-01
421.000      1.98898e-01
422.000      1.26704e-01
423.000      7.63603e-02
424.000      4.35375e-02
425.000      2.34843e-02
426.000      1.19842e-02
427.000      5.78574e-03
428.000      2.64256e-03
429.000      1.14185e-03
430.000      4.66780e-04
431.000      1.80523e-04
432.000      6.60495e-05
433.000      2.28625e-05
434.000      7.48681e-06
435.000      2.31946e-06
436.000      6.79821e-07
437.000      1.88504e-07
438.000      4.94496e-08
439.000      1.22722e-08
440.000      2.88139e-09
441.000      6.40026e-10
442.000      1.34496e-10
443.000      2.67388e-11
444.000      5.02910e-12
445.000      8.94863e-13
446.000      1.50640e-13
447.000      2.39906e-14
448.000      3.61460e-15
449.000      5.15225e-16
450.000      6.94786e-17
451.000      8.86386e-18
452.000      1.06982e-18
453.000      1.22157e-19
454.000      1.31960e-20
455.000      1.34861e-21
456.000      1.30390e-22
457.000      1.19268e-23
458.000      1.03209e-24
459.000      8.44949e-26
460.000      6.54426e-27
461.000      4.79522e-28
462.000      3.32410e-29
463.000      2.18000e-30
464.000      1.35256e-31
465.000      7.93918e-33
466.000      4.40871e-34
467.000      2.31614e-35
468.000      1.15116e-36
469.000      5.41283e-38
470.000      2.40785e-39
471.000      1.01334e-40
472.000      4.03455e-42
473.000      1.51969e-43
474.000      5.41540e-45
475.000      1.82568e-46
476.000      5.82286e-48
477.000      1.75698e-49
478.000      5.01549e-51
479.000      1.35450e-52
480.000      3.46067e-54
481.000      8.36488e-56
482.000      1.91283e-57
483.000      4.13820e-59
484.000      8.46963e-61
485.000      1.63996e-62
486.000      3.00415e-64
487.000      5.20628e-66
488.000      8.53592e-68
489.000      1.32401e-69
490.000      1.94289e-71
491.000      2.69727e-73
492.000      3.54257e-75
493.000      4.40179e-77
494.000      5.17438e-79
495.000      5.75445e-81
496.000      6.05435e-83
497.000      6.02628e-85
498.000      5.67477e-87
499.000      5.05551e-89
500.000      4.26088e-91
