# Gaussian folded, width=10 cm^-1
# [cm^-1] arbitrary
0.000      3.00000e+00
1.000      2.91796e+00
2.000      2.68508e+00
3.000      2.33749e+00
4.000      1.92514e+00
5.000      1.50000e+00
6.000      1.10570e+00
7.000      7.71085e-01
8.000      5.08727e-01
9.000      3.17529e-01
10.000      1.87500e-01
11.000      1.04746e-01
12.000      5.53590e-02
13.000      2.76795e-02
14.000      1.30933e-02
15.000      5.85990e-03
16.000      2.48262e-03
17.000      1.00020e-03
18.000      3.97955e-04
19.000      2.01059e-04
20.000      2.38644e-04
21.000      5.47890e-04
22.000      1.40099e-03
23.000      3.46694e-03
24.000      8.15025e-03
25.000      1.81640e-02
26.000      3.83728e-02
27.000      7.68545e-02
28.000      1.45958e-01
29.000      2.62900e-01
30.000      4.49215e-01
31.000      7.28334e-01
32.000      1.12083e+00
33.000      1.63764e+00
34.000      2.27253e+00
35.000      2.99621e+00
36.000      3.75471e+00
37.000      4.47408e+00
38.000      5.07159e+00
39.000      5.47135e+00
40.000      5.62022e+00
41.000      5.49940e+00
42.000      5.12823e+00
43.000      4.55911e+00
44.000      3.86544e+00
45.000      3.12637e+00
46.000      2.41260e+00
47.000      1.77655e+00
48.000      1.24834e+00
49.000      8.37135e-01
50.000      5.36103e-01
51.000      3.28912e-01
52.000      1.95932e-01
53.000      1.19116e-01
54.000      8.52527e-02
55.000      8.77836e-02
56.000      1.27552e-01
57.000      2.12678e-01
58.000      3.57476e-01
59.000      5.80109e-01
60.000      8.98685e-01
61.000      1.32589e+00
62.000      1.86289e+00
63.000      2.49401e+00
64.000      3.18390e+00
65.000      3.87884e+00
66.000      4.51271e+00
67.000      5.01698e+00
68.000      5.33256e+00
69.000      5.42084e+00
70.000      5.27116e+00
71.000      4.90279e+00
72.000      4.36118e+00
73.000      3.70928e+00
74.000      3.01642e+00
75.000      2.34737e+00
76.000      1.75419e+00
77.000      1.27239e+00
78.000      9.21647e-01
79.000      7.09752e-01
80.000      6.37936e-01
81.000      7.05241e-01
82.000      9.10349e-01
83.000      1.25024e+00
84.000      1.71625e+00
85.000      2.28912e+00
86.000      2.93512e+00
87.000      3.60536e+00
88.000      4.23927e+00
89.000      4.77245e+00
90.000      5.14734e+00
91.000      5.32428e+00
92.000      5.29038e+00
93.000      5.06393e+00
94.000      4.69327e+00
95.000      4.25041e+00
96.000      3.82059e+00
97.000      3.49005e+00
98.000      3.33396e+00
99.000      3.40657e+00
100.000      3.73511e+00
101.000      4.31821e+00
102.000      5.12888e+00
103.000      6.12107e+00
104.000      7.23809e+00
105.000      8.42055e+00
106.000      9.61199e+00
107.000      1.07609e+01
108.000      1.18198e+01
109.000      1.27424e+01
110.000      1.34831e+01
111.000      1.39978e+01
112.000      1.42504e+01
113.000      1.42201e+01
114.000      1.39087e+01
115.000      1.33434e+01
116.000      1.25744e+01
117.000      1.16658e+01
118.000      1.06849e+01
119.000      9.69244e+00
120.000      8.73753e+00
121.000      7.85821e+00
122.000      7.08638e+00
123.000      6.45339e+00
124.000      5.99345e+00
125.000      5.74248e+00
126.000      5.73301e+00
127.000      5.98698e+00
128.000      6.50918e+00
129.000      7.28369e+00
130.000      8.27409e+00
131.000      9.42701e+00
132.000      1.06776e+01
133.000      1.19551e+01
134.000      1.31878e+01
135.000      1.43063e+01
136.000      1.52466e+01
137.000      1.59541e+01
138.000      1.63889e+01
139.000      1.65311e+01
140.000      1.63863e+01
141.000      1.59861e+01
142.000      1.53838e+01
143.000      1.46450e+01
144.000      1.38356e+01
145.000      1.30114e+01
146.000      1.22124e+01
147.000      1.14628e+01
148.000      1.07764e+01
149.000      1.01624e+01
150.000      9.63077e+00
151.000      9.19371e+00
152.000      8.86375e+00
153.000      8.65075e+00
154.000      8.56004e+00
155.000      8.59268e+00
156.000      8.74743e+00
157.000      9.02218e+00
158.000      9.41290e+00
159.000      9.90952e+00
160.000      1.04903e+01
161.000      1.11175e+01
162.000      1.17377e+01
163.000      1.22863e+01
164.000      1.26967e+01
165.000      1.29102e+01
166.000      1.28846e+01
167.000      1.25989e+01
168.000      1.20548e+01
169.000      1.12747e+01
170.000      1.02988e+01
171.000      9.18038e+00
172.000      7.98181e+00
173.000      6.76962e+00
174.000      5.60971e+00
175.000      4.56238e+00
176.000      3.67762e+00
177.000      2.99110e+00
178.000      2.52150e+00
179.000      2.26943e+00
180.000      2.21825e+00
181.000      2.33664e+00
182.000      2.58248e+00
183.000      2.90751e+00
184.000      3.26225e+00
185.000      3.60067e+00
186.000      3.88415e+00
187.000      4.08458e+00
188.000      4.18599e+00
189.000      4.18474e+00
190.000      4.08795e+00
191.000      3.91075e+00
192.000      3.67296e+00
193.000      3.39617e+00
194.000      3.10156e+00
195.000      2.80888e+00
196.000      2.53580e+00
197.000      2.29743e+00
198.000      2.10568e+00
199.000      1.96862e+00
200.000      1.89042e+00
201.000      1.87210e+00
202.000      1.91264e+00
203.000      2.00974e+00
204.000      2.15927e+00
205.000      2.35330e+00
206.000      2.57764e+00
207.000      2.81041e+00
208.000      3.02344e+00
209.000      3.18656e+00
210.000      3.27410e+00
211.000      3.27090e+00
212.000      3.17568e+00
213.000      3.00023e+00
214.000      2.76503e+00
215.000      2.49303e+00
216.000      2.20429e+00
217.000      1.91317e+00
218.000      1.62845e+00
219.000      1.35549e+00
220.000      1.09867e+00
221.000      8.62881e-01
222.000      6.53469e-01
223.000      4.75103e-01
224.000      3.30410e-01
225.000      2.19162e-01
226.000      1.38345e-01
227.000      8.29727e-02
228.000      4.72231e-02
229.000      2.54826e-02
230.000      1.30295e-02
231.000      6.30981e-03
232.000      2.89312e-03
233.000      1.25568e-03
234.000      5.15808e-04
235.000      2.00511e-04
236.000      7.37558e-05
237.000      2.56706e-05
238.000      8.45356e-06
239.000      2.63386e-06
240.000      7.76405e-07
241.000      2.16530e-07
242.000      5.71318e-08
243.000      1.42614e-08
244.000      3.36801e-09
245.000      7.52499e-10
246.000      1.59065e-10
247.000      3.18444e-11
248.000      6.24973e-12
249.000      2.46497e-12
250.000      8.03393e-12
251.000      4.20537e-11
252.000      2.12821e-10
253.000      1.01968e-09
254.000      4.62254e-09
255.000      1.98269e-08
256.000      8.04610e-08
257.000      3.08941e-07
258.000      1.12234e-06
259.000      3.85773e-06
260.000      1.25459e-05
261.000      3.86043e-05
262.000      1.12392e-04
263.000      3.09607e-04
264.000      8.06981e-04
265.000      1.99025e-03
266.000      4.64470e-03
267.000      1.02575e-02
268.000      2.14385e-02
269.000      4.24111e-02
270.000      7.94295e-02
271.000      1.40876e-01
272.000      2.36730e-01
273.000      3.77170e-01
274.000      5.70374e-01
275.000      8.20007e-01
276.000      1.12341e+00
277.000      1.47162e+00
278.000      1.85197e+00
279.000      2.25283e+00
280.000      2.66881e+00
281.000      3.10353e+00
282.000      3.56753e+00
283.000      4.07081e+00
284.000      4.61196e+00
285.000      5.16897e+00
286.000      5.69684e+00
287.000      6.13572e+00
288.000      6.42865e+00
289.000      6.54379e+00
290.000      6.49283e+00
291.000      6.33822e+00
292.000      6.18504e+00
293.000      6.15925e+00
294.000      6.37845e+00
295.000      6.92392e+00
296.000      7.82158e+00
297.000      9.03648e+00
298.000      1.04802e+01
299.000      1.20280e+01
300.000      1.35383e+01
301.000      1.48725e+01
302.000      1.59087e+01
303.000      1.65534e+01
304.000      1.67504e+01
305.000      1.64900e+01
306.000      1.58161e+01
307.000      1.48282e+01
308.000      1.36735e+01
309.000      1.25282e+01
310.000      1.15670e+01
311.000      1.09302e+01
312.000      1.06944e+01
313.000      1.08574e+01
314.000      1.13397e+01
315.000      1.20045e+01
316.000      1.26908e+01
317.000      1.32520e+01
318.000      1.35911e+01
319.000      1.36857e+01
320.000      1.35963e+01
321.000      1.34577e+01
322.000      1.34544e+01
323.000      1.37858e+01
324.000      1.46295e+01
325.000      1.61090e+01
326.000      1.82717e+01
327.000      2.10788e+01
328.000      2.44083e+01
329.000      2.80671e+01
330.000      3.18131e+01
331.000      3.53829e+01
332.000      3.85225e+01
333.000      4.10181e+01
334.000      4.27201e+01
335.000      4.35575e+01
336.000      4.35401e+01
337.000      4.27491e+01
338.000      4.13210e+01
339.000      3.94271e+01
340.000      3.72541e+01
341.000      3.49867e+01
342.000      3.27934e+01
343.000      3.08166e+01
344.000      2.91658e+01
345.000      2.79161e+01
346.000      2.71082e+01
347.000      2.67492e+01
348.000      2.68125e+01
349.000      2.72358e+01
350.000      2.79206e+01
351.000      2.87373e+01
352.000      2.95377e+01
353.000      3.01755e+01
354.000      3.05285e+01
355.000      3.05178e+01
356.000      3.01158e+01
357.000      2.93412e+01
358.000      2.82448e+01
359.000      2.68908e+01
360.000      2.53404e+01
361.000      2.36421e+01
362.000      2.18303e+01
363.000      1.99306e+01
364.000      1.79673e+01
365.000      1.59719e+01
366.000      1.39880e+01
367.000      1.20717e+01
368.000      1.02869e+01
369.000      8.69808e+00
370.000      7.36129e+00
371.000      6.31683e+00
372.000      5.58516e+00
373.000      5.16598e+00
374.000      5.04011e+00
375.000      5.17333e+00
376.000      5.52185e+00
377.000      6.03963e+00
378.000      6.68722e+00
379.000      7.44047e+00
380.000      8.29584e+00
381.000      9.26873e+00
382.000      1.03828e+01
383.000      1.16527e+01
384.000      1.30660e+01
385.000      1.45732e+01
386.000      1.60923e+01
387.000      1.75267e+01
388.000      1.87918e+01
389.000      1.98375e+01
390.000      2.06565e+01
391.000      2.12747e+01
392.000      2.17279e+01
393.000      2.20364e+01
394.000      2.21879e+01
395.000      2.21373e+01
396.000      2.18207e+01
397.000      2.11785e+01
398.000      2.01760e+01
399.000      1.88164e+01
400.000      1.71433e+01
401.000      1.52338e+01
402.000      1.31886e+01
403.000      1.11192e+01
404.000      9.13558e+00
405.000      7.33557e+00
406.000      5.79405e+00
407.000      4.55579e+00
408.000      3.63227e+00
409.000      3.00387e+00
410.000      2.62696e+00
411.000      2.44396e+00
412.000      2.39370e+00
413.000      2.41984e+00
414.000      2.47612e+00
415.000      2.52853e+00
416.000      2.55514e+00
417.000      2.54470e+00
418.000      2.49435e+00
419.000      2.40703e+00
420.000      2.28862e+00
421.000      2.14534e+00
422.000      1.98196e+00
423.000      1.80144e+00
424.000      1.60581e+00
425.000      1.39800e+00
426.000      1.18342e+00
427.000      9.70569e-01
428.000      7.70364e-01
429.000      5.94537e-01
430.000      4.53767e-01
431.000      3.56236e-01
432.000      3.06870e-01
433.000      3.07053e-01
434.000      3.54432e-01
435.000      4.42545e-01
436.000      5.60416e-01
437.000      6.92615e-01
438.000      8.20396e-01
439.000      9.24172e-01
440.000      9.86989e-01
441.000      9.98051e-01
442.000      9.55114e-01
443.000      8.64835e-01
444.000      7.40886e-01
445.000      6.00477e-01
446.000      4.60429e-01
447.000      3.34001e-01
448.000      2.29219e-01
449.000      1.48824e-01
450.000      9.14138e-02
451.000      5.31212e-02
452.000      2.92040e-02
453.000      1.51892e-02
454.000      7.47384e-03
455.000      3.47913e-03
456.000      1.53220e-03
457.000      6.38377e-04
458.000      2.51627e-04
459.000      9.38328e-05
460.000      3.31032e-05
461.000      1.10485e-05
462.000      3.48861e-06
463.000      1.04213e-06
464.000      2.94514e-07
465.000      7.87424e-08
466.000      1.99173e-08
467.000      4.76615e-09
468.000      1.07901e-09
469.000      2.31098e-10
470.000      4.68261e-11
471.000      8.97628e-12
472.000      1.62788e-12
473.000      2.79297e-13
474.000      4.53344e-14
475.000      6.96157e-15
476.000      1.01136e-15
477.000      1.39001e-16
478.000      1.80738e-17
479.000      2.22331e-18
480.000      2.58742e-19
481.000      2.84873e-20
482.000      2.96724e-21
483.000      2.92397e-22
484.000      2.72590e-23
485.000      2.40417e-24
486.000      2.00603e-25
487.000      1.58354e-26
488.000      1.18259e-27
489.000      8.35529e-29
490.000      5.58476e-30
491.000      3.53155e-31
492.000      2.11273e-32
493.000      1.19575e-33
494.000      6.40254e-35
495.000      3.24327e-36
496.000      1.55429e-37
497.000      7.04691e-39
498.000      3.02261e-40
499.000      1.22655e-41
500.000      4.70872e-43
