# Gaussian folded, width=10 cm^-1
# [cm^-1] arbitrary
0.000      3.00000e+00
1.000      2.91796e+00
2.000      2.68508e+00
3.000      2.33749e+00
4.000      1.92514e+00
5.000      1.50000e+00
6.000      1.10570e+00
7.000      7.71085e-01
8.000      5.08727e-01
9.000      3.17530e-01
10.000      1.87501e-01
11.000      1.04750e-01
12.000      5.53723e-02
13.000      2.77216e-02
14.000      1.32198e-02
15.000      6.22068e-03
16.000      3.45727e-03
17.000      3.49425e-03
18.000      6.44304e-03
19.000      1.40793e-02
20.000      3.04160e-02
21.000      6.26935e-02
22.000      1.22590e-01
23.000      2.27212e-01
24.000      3.99128e-01
25.000      6.64525e-01
26.000      1.04869e+00
27.000      1.56870e+00
28.000      2.22435e+00
29.000      2.98987e+00
30.000      3.80978e+00
31.000      4.60208e+00
32.000      5.27014e+00
33.000      5.72147e+00
34.000      5.88860e+00
35.000      5.74561e+00
36.000      5.31477e+00
37.000      4.66100e+00
38.000      3.87614e+00
39.000      3.05843e+00
40.000      2.29385e+00
41.000      1.64427e+00
42.000      1.14451e+00
43.000      8.07097e-01
44.000      6.31214e-01
45.000      6.11832e-01
46.000      7.45704e-01
47.000      1.03243e+00
48.000      1.47053e+00
49.000      2.05009e+00
50.000      2.74469e+00
51.000      3.50597e+00
52.000      4.26388e+00
53.000      4.93398e+00
54.000      5.43127e+00
55.000      5.68704e+00
56.000      5.66411e+00
57.000      5.36561e+00
58.000      4.83440e+00
59.000      4.14339e+00
60.000      3.37984e+00
61.000      2.62874e+00
62.000      1.95986e+00
63.000      1.42136e+00
64.000      1.04045e+00
65.000      8.28687e-01
66.000      7.88954e-01
67.000      9.20614e-01
68.000      1.22086e+00
69.000      1.68192e+00
70.000      2.28557e+00
71.000      2.99796e+00
72.000      3.76785e+00
73.000      4.53086e+00
74.000      5.22020e+00
75.000      5.78174e+00
76.000      6.18931e+00
77.000      6.45463e+00
78.000      6.62805e+00
79.000      6.78828e+00
80.000      7.02364e+00
81.000      7.41027e+00
82.000      7.99384e+00
83.000      8.78050e+00
84.000      9.73886e+00
85.000      1.08111e+01
86.000      1.19282e+01
87.000      1.30228e+01
88.000      1.40363e+01
89.000      1.49194e+01
90.000      1.56274e+01
91.000      1.61167e+01
92.000      1.63448e+01
93.000      1.62764e+01
94.000      1.58938e+01
95.000      1.52078e+01
96.000      1.42649e+01
97.000      1.31463e+01
98.000      1.19581e+01
99.000      1.08155e+01
100.000      9.82475e+00
101.000      9.06865e+00
102.000      8.59825e+00
103.000      8.43302e+00
104.000      8.56677e+00
105.000      8.97634e+00
106.000      9.62957e+00
107.000      1.04902e+01
108.000      1.15188e+01
109.000      1.26714e+01
110.000      1.38956e+01
111.000      1.51294e+01
112.000      1.63016e+01
113.000      1.73370e+01
114.000      1.81661e+01
115.000      1.87360e+01
116.000      1.90206e+01
117.000      1.90254e+01
118.000      1.87864e+01
119.000      1.83607e+01
120.000      1.78136e+01
121.000      1.72058e+01
122.000      1.65837e+01
123.000      1.59769e+01
124.000      1.54017e+01
125.000      1.48672e+01
126.000      1.43817e+01
127.000      1.39555e+01
128.000      1.35994e+01
129.000      1.33196e+01
130.000      1.31122e+01
131.000      1.29613e+01
132.000      1.28397e+01
133.000      1.27139e+01
134.000      1.25513e+01
135.000      1.23255e+01
136.000      1.20203e+01
137.000      1.16306e+01
138.000      1.11616e+01
139.000      1.06263e+01
140.000      1.00433e+01
141.000      9.43377e+00
142.000      8.81847e+00
143.000      8.21507e+00
144.000      7.63605e+00
145.000      7.08821e+00
146.000      6.57394e+00
147.000      6.09375e+00
148.000      5.64868e+00
149.000      5.24146e+00
150.000      4.87552e+00
151.000      4.55258e+00
152.000      4.26995e+00
153.000      4.01939e+00
154.000      3.78833e+00
155.000      3.56327e+00
156.000      3.33393e+00
157.000      3.09646e+00
158.000      2.85439e+00
159.000      2.61725e+00
160.000      2.39791e+00
161.000      2.21020e+00
162.000      2.06791e+00
163.000      1.98547e+00
164.000      1.97916e+00
165.000      2.06761e+00
166.000      2.27044e+00
167.000      2.60484e+00
168.000      3.08108e+00
169.000      3.69818e+00
170.000      4.44119e+00
171.000      5.28076e+00
172.000      6.17534e+00
173.000      7.07584e+00
174.000      7.93217e+00
175.000      8.70089e+00
176.000      9.35253e+00
177.000      9.87697e+00
178.000      1.02853e+01
179.000      1.06073e+01
180.000      1.08844e+01
181.000      1.11602e+01
182.000      1.14706e+01
183.000      1.18360e+01
184.000      1.22573e+01
185.000      1.27178e+01
186.000      1.31880e+01
187.000      1.36342e+01
188.000      1.40266e+01
189.000      1.43461e+01
190.000      1.45878e+01
191.000      1.47615e+01
192.000      1.48894e+01
193.000      1.50017e+01
194.000      1.51318e+01
195.000      1.53106e+01
196.000      1.55613e+01
197.000      1.58954e+01
198.000      1.63097e+01
199.000      1.67867e+01
200.000      1.72964e+01
201.000      1.78012e+01
202.000      1.82606e+01
203.000      1.86356e+01
204.000      1.88925e+01
205.000      1.90055e+01
206.000      1.89588e+01
207.000      1.87498e+01
208.000      1.83909e+01
209.000      1.79104e+01
210.000      1.73501e+01
211.000      1.67594e+01
212.000      1.61880e+01
213.000      1.56785e+01
214.000      1.52623e+01
215.000      1.49599e+01
216.000      1.47842e+01
217.000      1.47431e+01
218.000      1.48405e+01
219.000      1.50733e+01
220.000      1.54256e+01
221.000      1.58651e+01
222.000      1.63446e+01
223.000      1.68101e+01
224.000      1.72146e+01
225.000      1.75316e+01
226.000      1.77651e+01
227.000      1.79500e+01
228.000      1.81428e+01
229.000      1.84045e+01
230.000      1.87807e+01
231.000      1.92860e+01
232.000      1.98962e+01
233.000      2.05526e+01
234.000      2.11758e+01
235.000      2.16857e+01
236.000      2.20216e+01
237.000      2.21560e+01
238.000      2.20993e+01
239.000      2.18946e+01
240.000      2.16056e+01
241.000      2.13021e+01
242.000      2.10464e+01
243.000      2.08852e+01
244.000      2.08446e+01
245.000      2.09305e+01
246.000      2.11289e+01
247.000      2.14067e+01
248.000      2.17125e+01
249.000      2.19778e+01
250.000      2.21217e+01
251.000      2.20602e+01
252.000      2.17192e+01
253.000      2.10499e+01
254.000      2.00408e+01
255.000      1.87241e+01
256.000      1.71731e+01
257.000      1.54908e+01
258.000      1.37933e+01
259.000      1.21916e+01
260.000      1.07746e+01
261.000      9.59870e+00
262.000      8.68246e+00
263.000      8.00904e+00
264.000      7.53409e+00
265.000      7.19801e+00
266.000      6.93987e+00
267.000      6.71002e+00
268.000      6.47862e+00
269.000      6.23841e+00
270.000      6.00145e+00
271.000      5.79144e+00
272.000      5.63394e+00
273.000      5.54743e+00
274.000      5.53743e+00
275.000      5.59494e+00
276.000      5.69894e+00
277.000      5.82181e+00
278.000      5.93546e+00
279.000      6.01633e+00
280.000      6.04794e+00
281.000      6.02113e+00
282.000      5.93269e+00
283.000      5.78395e+00
284.000      5.58009e+00
285.000      5.33046e+00
286.000      5.04898e+00
287.000      4.75365e+00
288.000      4.46449e+00
289.000      4.20019e+00
290.000      3.97433e+00
291.000      3.79265e+00
292.000      3.65234e+00
293.000      3.54386e+00
294.000      3.45455e+00
295.000      3.37291e+00
296.000      3.29194e+00
297.000      3.21023e+00
298.000      3.13034e+00
299.000      3.05507e+00
300.000      2.98343e+00
301.000      2.90829e+00
302.000      2.81749e+00
303.000      2.69853e+00
304.000      2.54534e+00
305.000      2.36459e+00
306.000      2.17864e+00
307.000      2.02359e+00
308.000      1.94231e+00
309.000      1.97417e+00
310.000      2.14433e+00
311.000      2.45516e+00
312.000      2.88243e+00
313.000      3.37747e+00
314.000      3.87535e+00
315.000      4.30768e+00
316.000      4.61718e+00
317.000      4.77062e+00
318.000      4.76661e+00
319.000      4.63625e+00
320.000      4.43633e+00
321.000      4.23712e+00
322.000      4.10811e+00
323.000      4.10565e+00
324.000      4.26554e+00
325.000      4.60203e+00
326.000      5.11233e+00
327.000      5.78413e+00
328.000      6.60243e+00
329.000      7.55276e+00
330.000      8.61929e+00
331.000      9.77905e+00
332.000      1.09954e+01
333.000      1.22144e+01
334.000      1.33677e+01
335.000      1.43810e+01
336.000      1.51872e+01
337.000      1.57393e+01
338.000      1.60182e+01
339.000      1.60339e+01
340.000      1.58196e+01
341.000      1.54212e+01
342.000      1.48865e+01
343.000      1.42570e+01
344.000      1.35648e+01
345.000      1.28332e+01
346.000      1.20795e+01
347.000      1.13177e+01
348.000      1.05595e+01
349.000      9.81326e+00
350.000      9.08451e+00
351.000      8.37716e+00
352.000      7.69703e+00
353.000      7.05539e+00
354.000      6.47009e+00
355.000      5.96258e+00
356.000      5.55141e+00
357.000      5.24480e+00
358.000      5.03628e+00
359.000      4.90569e+00
360.000      4.82537e+00
361.000      4.76892e+00
362.000      4.71828e+00
363.000      4.66637e+00
364.000      4.61465e+00
365.000      4.56760e+00
366.000      4.52730e+00
367.000      4.49090e+00
368.000      4.45166e+00
369.000      4.40251e+00
370.000      4.33973e+00
371.000      4.26467e+00
372.000      4.18261e+00
373.000      4.09969e+00
374.000      4.01986e+00
375.000      3.94374e+00
376.000      3.87031e+00
377.000      3.80084e+00
378.000      3.74279e+00
379.000      3.71161e+00
380.000      3.72843e+00
381.000      3.81377e+00
382.000      3.97893e+00
383.000      4.21816e+00
384.000      4.50482e+00
385.000      4.79359e+00
386.000      5.02897e+00
387.000      5.15762e+00
388.000      5.14094e+00
389.000      4.96367e+00
390.000      4.63612e+00
391.000      4.18965e+00
392.000      3.66760e+00
393.000      3.11514e+00
394.000      2.57126e+00
395.000      2.06448e+00
396.000      1.61243e+00
397.000      1.22371e+00
398.000      9.00492e-01
399.000      6.40665e-01
400.000      4.39262e-01
401.000      2.89297e-01
402.000      1.82467e-01
403.000      1.09927e-01
404.000      6.31186e-02
405.000      3.44810e-02
406.000      1.78967e-02
407.000      8.81608e-03
408.000      4.11847e-03
409.000      1.82342e-03
410.000      7.64774e-04
411.000      3.03755e-04
412.000      1.14222e-04
413.000      4.06563e-05
414.000      1.36962e-05
415.000      4.36634e-06
416.000      1.31719e-06
417.000      3.75986e-07
418.000      1.01546e-07
419.000      2.59486e-08
420.000      6.27351e-09
421.000      1.43498e-09
422.000      3.10540e-10
423.000      6.35796e-11
424.000      1.23153e-11
425.000      2.25682e-12
426.000      3.91265e-13
427.000      6.41752e-14
428.000      9.95826e-15
429.000      1.46191e-15
430.000      2.03037e-16
431.000      2.66777e-17
432.000      3.31621e-18
433.000      3.89989e-19
434.000      4.33892e-20
435.000      4.56698e-21
436.000      4.54772e-22
437.000      4.28427e-23
438.000      3.81836e-24
439.000      3.21955e-25
440.000      2.56821e-26
441.000      1.93814e-27
442.000      1.38375e-28
443.000      9.34642e-30
444.000      5.97244e-31
445.000      3.61057e-32
446.000      2.06499e-33
447.000      1.11732e-34
448.000      5.71945e-36
449.000      2.76980e-37
450.000      1.26900e-38
451.000      5.50036e-40
452.000      2.25548e-41
453.000      8.74991e-43
454.000      3.21134e-44
455.000      1.11503e-45
456.000      3.66272e-47
457.000      1.13826e-48
458.000      3.34651e-50
459.000      9.30815e-52
460.000      2.44935e-53
461.000      6.09758e-55
462.000      1.43609e-56
463.000      3.19979e-58
464.000      6.74498e-60
465.000      1.34511e-61
466.000      2.53776e-63
467.000      4.52963e-65
468.000      7.64877e-67
469.000      1.22191e-68
470.000      1.84673e-70
471.000      2.64049e-72
472.000      3.57177e-74
473.000      4.57089e-76
474.000      5.53395e-78
475.000      6.33852e-80
476.000      6.86843e-82
477.000      7.04117e-84
478.000      6.82889e-86
479.000      6.26574e-88
480.000      5.43892e-90
481.000      4.46654e-92
482.000      3.47013e-94
483.000      2.55058e-96
484.000      1.77358e-98
485.000     1.16675e-100
486.000     7.26146e-103
487.000     4.27551e-105
488.000     2.38160e-107
489.000     1.25507e-109
490.000     6.25725e-112
491.000     2.95133e-114
492.000     1.31695e-116
493.000     5.55953e-119
494.000     2.22037e-121
495.000     8.38936e-124
496.000     2.99882e-126
497.000     1.01412e-128
498.000     3.24450e-131
499.000     9.82024e-134
500.000     2.81199e-136
