# Gaussian folded, width=10 cm^-1
# [cm^-1] arbitrary
0.000      3.00000e+00
1.000      2.91796e+00
2.000      2.68508e+00
3.000      2.33749e+00
4.000      1.92514e+00
5.000      1.50000e+00
6.000      1.10570e+00
7.000      7.71085e-01
8.000      5.08727e-01
9.000      3.17529e-01
10.000      1.87500e-01
11.000      1.04746e-01
12.000      5.53592e-02
13.000      2.76803e-02
14.000      1.30961e-02
15.000      5.86892e-03
16.000      2.51103e-03
17.000      1.08502e-03
18.000      6.37632e-04
19.000      8.42177e-04
20.000      1.86187e-03
21.000      4.43741e-03
22.000      1.02201e-02
23.000      2.23850e-02
24.000      4.65331e-02
25.000      9.17945e-02
26.000      1.71861e-01
27.000      3.05435e-01
28.000      5.15363e-01
29.000      8.25721e-01
30.000      1.25647e+00
31.000      1.81609e+00
32.000      2.49378e+00
33.000      3.25365e+00
34.000      4.03395e+00
35.000      4.75316e+00
36.000      5.32310e+00
37.000      5.66636e+00
38.000      5.73349e+00
39.000      5.51460e+00
40.000      5.04178e+00
41.000      4.38141e+00
42.000      3.61892e+00
43.000      2.84088e+00
44.000      2.11949e+00
45.000      1.50319e+00
46.000      1.01460e+00
47.000      6.54675e-01
48.000      4.10366e-01
49.000      2.63249e-01
50.000      1.96835e-01
51.000      2.01553e-01
52.000      2.77057e-01
53.000      4.31903e-01
54.000      6.80739e-01
55.000      1.03920e+00
56.000      1.51704e+00
57.000      2.11068e+00
58.000      2.79693e+00
59.000      3.53029e+00
60.000      4.24544e+00
61.000      4.86581e+00
62.000      5.31659e+00
63.000      5.53951e+00
64.000      5.50506e+00
65.000      5.21892e+00
66.000      4.72055e+00
67.000      4.07467e+00
68.000      3.35815e+00
69.000      2.64636e+00
70.000      2.00226e+00
71.000      1.47072e+00
72.000      1.07825e+00
73.000      8.36824e-01
74.000      7.49485e-01
75.000      8.15105e-01
76.000      1.03061e+00
77.000      1.38990e+00
78.000      1.88016e+00
79.000      2.47715e+00
80.000      3.14186e+00
81.000      3.82060e+00
82.000      4.44980e+00
83.000      4.96536e+00
84.000      5.31492e+00
85.000      5.46992e+00
86.000      5.43442e+00
87.000      5.24784e+00
88.000      4.98069e+00
89.000      4.72383e+00
90.000      4.57364e+00
91.000      4.61619e+00
92.000      4.91354e+00
93.000      5.49454e+00
94.000      6.35144e+00
95.000      7.44213e+00
96.000      8.69698e+00
97.000      1.00284e+01
98.000      1.13415e+01
99.000      1.25443e+01
100.000      1.35565e+01
101.000      1.43165e+01
102.000      1.47860e+01
103.000      1.49519e+01
104.000      1.48248e+01
105.000      1.44353e+01
106.000      1.38275e+01
107.000      1.30523e+01
108.000      1.21622e+01
109.000      1.12084e+01
110.000      1.02403e+01
111.000      9.30639e+00
112.000      8.45458e+00
113.000      7.73065e+00
114.000      7.17478e+00
115.000      6.81723e+00
116.000      6.67498e+00
117.000      6.75091e+00
118.000      7.03583e+00
119.000      7.51215e+00
120.000      8.15743e+00
121.000      8.94643e+00
122.000      9.85109e+00
123.000      1.08393e+01
124.000      1.18737e+01
125.000      1.29120e+01
126.000      1.39081e+01
127.000      1.48150e+01
128.000      1.55877e+01
129.000      1.61868e+01
130.000      1.65819e+01
131.000      1.67561e+01
132.000      1.67094e+01
133.000      1.64604e+01
134.000      1.60453e+01
135.000      1.55132e+01
136.000      1.49182e+01
137.000      1.43106e+01
138.000      1.37289e+01
139.000      1.31964e+01
140.000      1.27205e+01
141.000      1.22975e+01
142.000      1.19182e+01
143.000      1.15744e+01
144.000      1.12617e+01
145.000      1.09805e+01
146.000      1.07343e+01
147.000      1.05254e+01
148.000      1.03533e+01
149.000      1.02123e+01
150.000      1.00923e+01
151.000      9.98065e+00
152.000      9.86424e+00
153.000      9.73071e+00
154.000      9.56930e+00
155.000      9.37077e+00
156.000      9.12729e+00
157.000      8.83288e+00
158.000      8.48440e+00
159.000      8.08297e+00
160.000      7.63537e+00
161.000      7.15490e+00
162.000      6.66123e+00
163.000      6.17908e+00
164.000      5.73562e+00
165.000      5.35676e+00
166.000      5.06296e+00
167.000      4.86559e+00
168.000      4.76475e+00
169.000      4.74911e+00
170.000      4.79775e+00
171.000      4.88348e+00
172.000      4.97677e+00
173.000      5.04967e+00
174.000      5.07933e+00
175.000      5.05086e+00
176.000      4.95917e+00
177.000      4.80976e+00
178.000      4.61789e+00
179.000      4.40635e+00
180.000      4.20188e+00
181.000      4.03101e+00
182.000      3.91603e+00
183.000      3.87178e+00
184.000      3.90399e+00
185.000      4.00916e+00
186.000      4.17598e+00
187.000      4.38766e+00
188.000      4.62469e+00
189.000      4.86745e+00
190.000      5.09848e+00
191.000      5.30426e+00
192.000      5.47661e+00
193.000      5.61365e+00
194.000      5.72018e+00
195.000      5.80712e+00
196.000      5.88967e+00
197.000      5.98408e+00
198.000      6.10351e+00
199.000      6.25402e+00
200.000      6.43206e+00
201.000      6.62503e+00
202.000      6.81543e+00
203.000      6.98777e+00
204.000      7.13617e+00
205.000      7.26955e+00
206.000      7.41180e+00
207.000      7.59601e+00
208.000      7.85418e+00
209.000      8.20586e+00
210.000      8.64978e+00
211.000      9.16141e+00
212.000      9.69729e+00
213.000      1.02042e+01
214.000      1.06300e+01
215.000      1.09327e+01
216.000      1.10856e+01
217.000      1.10796e+01
218.000      1.09222e+01
219.000      1.06359e+01
220.000      1.02568e+01
221.000      9.83222e+00
222.000      9.41596e+00
223.000      9.06151e+00
224.000      8.81302e+00
225.000      8.69653e+00
226.000      8.71421e+00
227.000      8.84387e+00
228.000      9.04424e+00
229.000      9.26473e+00
230.000      9.45695e+00
231.000      9.58489e+00
232.000      9.63133e+00
233.000      9.59908e+00
234.000      9.50726e+00
235.000      9.38354e+00
236.000      9.25468e+00
237.000      9.13758e+00
238.000      9.03364e+00
239.000      8.92814e+00
240.000      8.79534e+00
241.000      8.60803e+00
242.000      8.34870e+00
243.000      8.01838e+00
244.000      7.63972e+00
245.000      7.25272e+00
246.000      6.90397e+00
247.000      6.63279e+00
248.000      6.45905e+00
249.000      6.37656e+00
250.000      6.35439e+00
251.000      6.34505e+00
252.000      6.29678e+00
253.000      6.16591e+00
254.000      5.92594e+00
255.000      5.57176e+00
256.000      5.11909e+00
257.000      4.60028e+00
258.000      4.05799e+00
259.000      3.53780e+00
260.000      3.08072e+00
261.000      2.71630e+00
262.000      2.45738e+00
263.000      2.29797e+00
264.000      2.21483e+00
265.000      2.17299e+00
266.000      2.13391e+00
267.000      2.06421e+00
268.000      1.94259e+00
269.000      1.76324e+00
270.000      1.53501e+00
271.000      1.27718e+00
272.000      1.01345e+00
273.000      7.66083e-01
274.000      5.51725e-01
275.000      3.79705e-01
276.000      2.52696e-01
277.000      1.69012e-01
278.000      1.25607e-01
279.000      1.20911e-01
280.000      1.56878e-01
281.000      2.39831e-01
282.000      3.79898e-01
283.000      5.88943e-01
284.000      8.77198e-01
285.000      1.24914e+00
286.000      1.69959e+00
287.000      2.21133e+00
288.000      2.75537e+00
289.000      3.29446e+00
290.000      3.78956e+00
291.000      4.20767e+00
292.000      4.52924e+00
293.000      4.75295e+00
294.000      4.89663e+00
295.000      4.99403e+00
296.000      5.08830e+00
297.000      5.22377e+00
298.000      5.43766e+00
299.000      5.75352e+00
300.000      6.17728e+00
301.000      6.69653e+00
302.000      7.28280e+00
303.000      7.89620e+00
304.000      8.49155e+00
305.000      9.02488e+00
306.000      9.45954e+00
307.000      9.77114e+00
308.000      9.95093e+00
309.000      1.00073e+01
310.000      9.96471e+00
311.000      9.86112e+00
312.000      9.74247e+00
313.000      9.65664e+00
314.000      9.64721e+00
315.000      9.74843e+00
316.000      9.98231e+00
317.000      1.03582e+01
318.000      1.08743e+01
319.000      1.15212e+01
320.000      1.22865e+01
321.000      1.31587e+01
322.000      1.41316e+01
323.000      1.52064e+01
324.000      1.63904e+01
325.000      1.76930e+01
326.000      1.91180e+01
327.000      2.06549e+01
328.000      2.22722e+01
329.000      2.39139e+01
330.000      2.55037e+01
331.000      2.69538e+01
332.000      2.81789e+01
333.000      2.91107e+01
334.000      2.97102e+01
335.000      2.99742e+01
336.000      2.99357e+01
337.000      2.96578e+01
338.000      2.92241e+01
339.000      2.87265e+01
340.000      2.82526e+01
341.000      2.78747e+01
342.000      2.76416e+01
343.000      2.75733e+01
344.000      2.76603e+01
345.000      2.78666e+01
346.000      2.81367e+01
347.000      2.84040e+01
348.000      2.85999e+01
349.000      2.86621e+01
350.000      2.85410e+01
351.000      2.82039e+01
352.000      2.76373e+01
353.000      2.68468e+01
354.000      2.58555e+01
355.000      2.46989e+01
356.000      2.34200e+01
357.000      2.20624e+01
358.000      2.06653e+01
359.000      1.92607e+01
360.000      1.78733e+01
361.000      1.65231e+01
362.000      1.52286e+01
363.000      1.40090e+01
364.000      1.28840e+01
365.000      1.18707e+01
366.000      1.09784e+01
367.000      1.02053e+01
368.000      9.53635e+00
369.000      8.94580e+00
370.000      8.40344e+00
371.000      7.88229e+00
372.000      7.36622e+00
373.000      6.85503e+00
374.000      6.36584e+00
375.000      5.93067e+00
376.000      5.59135e+00
377.000      5.39294e+00
378.000      5.37688e+00
379.000      5.57487e+00
380.000      6.00361e+00
381.000      6.66105e+00
382.000      7.52456e+00
383.000      8.55172e+00
384.000      9.68420e+00
385.000      1.08543e+01
386.000      1.19929e+01
387.000      1.30369e+01
388.000      1.39339e+01
389.000      1.46431e+01
390.000      1.51330e+01
391.000      1.53779e+01
392.000      1.53562e+01
393.000      1.50521e+01
394.000      1.44615e+01
395.000      1.35992e+01
396.000      1.25050e+01
397.000      1.12442e+01
398.000      9.90185e+00
399.000      8.57044e+00
400.000      7.33509e+00
401.000      6.25953e+00
402.000      5.37736e+00
403.000      4.69037e+00
404.000      4.17406e+00
405.000      3.78789e+00
406.000      3.48709e+00
407.000      3.23248e+00
408.000      2.99619e+00
409.000      2.76273e+00
410.000      2.52638e+00
411.000      2.28710e+00
412.000      2.04684e+00
413.000      1.80797e+00
414.000      1.57348e+00
415.000      1.34848e+00
416.000      1.14124e+00
417.000      9.62956e-01
418.000      8.25787e-01
419.000      7.39686e-01
420.000      7.09029e-01
421.000      7.30175e-01
422.000      7.90822e-01
423.000      8.71535e-01
424.000      9.49246e-01
425.000      1.00192e+00
426.000      1.01318e+00
427.000      9.75586e-01
428.000      8.91625e-01
429.000      7.72204e-01
430.000      6.33225e-01
431.000      4.91453e-01
432.000      3.60922e-01
433.000      2.50789e-01
434.000      1.64871e-01
435.000      1.02543e-01
436.000      6.03384e-02
437.000      3.35893e-02
438.000      1.76900e-02
439.000      8.81400e-03
440.000      4.15466e-03
441.000      1.85275e-03
442.000      7.81655e-04
443.000      3.11983e-04
444.000      1.17805e-04
445.000      4.20839e-05
446.000      1.42228e-05
447.000      4.54748e-06
448.000      1.37555e-06
449.000      3.93638e-07
450.000      1.06570e-07
451.000      2.72956e-08
452.000      6.61405e-09
453.000      1.51621e-09
454.000      3.28828e-10
455.000      6.74678e-11
456.000      1.30961e-11
457.000      2.40494e-12
458.000      4.17815e-13
459.000      6.86723e-14
460.000      1.06782e-14
461.000      1.57083e-15
462.000      2.18615e-16
463.000      2.87838e-17
464.000      3.58537e-18
465.000      4.22510e-19
466.000      4.71040e-20
467.000      4.96817e-21
468.000      4.95738e-22
469.000      4.67978e-23
470.000      4.17943e-24
471.000      3.53123e-25
472.000      2.82262e-26
473.000      2.13450e-27
474.000      1.52707e-28
475.000      1.03356e-29
476.000      6.61811e-31
477.000      4.00912e-32
478.000      2.29763e-33
479.000      1.24575e-34
480.000      6.38995e-36
481.000      3.10086e-37
482.000      1.42359e-38
483.000      6.18308e-40
484.000      2.54064e-41
485.000      9.87638e-43
486.000      3.63221e-44
487.000      1.26375e-45
488.000      4.15977e-47
489.000      1.29537e-48
490.000      3.81626e-50
491.000      1.06365e-51
492.000      2.80464e-53
493.000      6.99638e-55
494.000      1.65115e-56
495.000      3.68654e-58
496.000      7.78695e-60
497.000      1.55609e-61
498.000      2.94183e-63
499.000      5.26162e-65
500.000      8.90305e-67
