# Gaussian folded, width=10 cm^-1
# [cm^-1] arbitrary
0.000      3.00000e+00
1.000      2.91796e+00
2.000      2.68508e+00
3.000      2.33749e+00
4.000      1.92514e+00
5.000      1.50000e+00
6.000      1.10570e+00
7.000      7.71085e-01
8.000      5.08727e-01
9.000      3.17529e-01
10.000      1.87500e-01
11.000      1.04746e-01
12.000      5.53592e-02
13.000      2.76803e-02
14.000      1.30960e-02
15.000      5.86871e-03
16.000      2.51054e-03
17.000      1.08401e-03
18.000      6.35993e-04
19.000      8.40732e-04
20.000      1.86492e-03
21.000      4.45905e-03
22.000      1.02976e-02
23.000      2.26033e-02
24.000      4.70639e-02
25.000      9.29471e-02
26.000      1.74133e-01
27.000      3.09531e-01
28.000      5.22147e-01
29.000      8.36056e-01
30.000      1.27093e+00
31.000      1.83460e+00
32.000      2.51527e+00
33.000      3.27595e+00
34.000      4.05397e+00
35.000      4.76750e+00
36.000      5.32890e+00
37.000      5.66213e+00
38.000      5.71961e+00
39.000      5.49333e+00
40.000      5.01663e+00
41.000      4.35620e+00
42.000      3.59688e+00
43.000      2.82400e+00
44.000      2.10840e+00
45.000      1.49744e+00
46.000      1.01324e+00
47.000      6.56775e-01
48.000      4.15555e-01
49.000      2.71928e-01
50.000      2.10172e-01
51.000      2.21199e-01
52.000      3.04575e-01
53.000      4.67964e-01
54.000      7.24227e-01
55.000      1.08654e+00
56.000      1.56216e+00
57.000      2.14582e+00
58.000      2.81449e+00
59.000      3.52506e+00
60.000      4.21665e+00
61.000      4.81787e+00
62.000      5.25823e+00
63.000      5.48136e+00
64.000      5.45663e+00
65.000      5.18609e+00
66.000      4.70459e+00
67.000      4.07291e+00
68.000      3.36599e+00
69.000      2.65959e+00
70.000      2.01895e+00
71.000      1.49216e+00
72.000      1.10881e+00
73.000      8.83054e-01
74.000      8.18430e-01
75.000      9.12058e-01
76.000      1.15632e+00
77.000      1.53760e+00
78.000      2.03326e+00
79.000      2.60877e+00
80.000      3.21748e+00
81.000      3.80444e+00
82.000      4.31422e+00
83.000      4.70116e+00
84.000      4.93916e+00
85.000      5.02823e+00
86.000      4.99585e+00
87.000      4.89284e+00
88.000      4.78497e+00
89.000      4.74236e+00
90.000      4.82869e+00
91.000      5.09204e+00
92.000      5.55833e+00
93.000      6.22849e+00
94.000      7.07943e+00
95.000      8.06872e+00
96.000      9.14167e+00
97.000      1.02389e+01
98.000      1.13025e+01
99.000      1.22790e+01
100.000      1.31208e+01
101.000      1.37857e+01
102.000      1.42375e+01
103.000      1.44494e+01
104.000      1.44076e+01
105.000      1.41161e+01
106.000      1.35984e+01
107.000      1.28958e+01
108.000      1.20632e+01
109.000      1.11615e+01
110.000      1.02509e+01
111.000      9.38597e+00
112.000      8.61259e+00
113.000      7.96718e+00
114.000      7.47758e+00
115.000      7.16451e+00
116.000      7.04297e+00
117.000      7.12292e+00
118.000      7.40842e+00
119.000      7.89516e+00
120.000      8.56685e+00
121.000      9.39193e+00
122.000      1.03227e+01
123.000      1.12982e+01
124.000      1.22516e+01
125.000      1.31201e+01
126.000      1.38544e+01
127.000      1.44261e+01
128.000      1.48295e+01
129.000      1.50785e+01
130.000      1.52005e+01
131.000      1.52278e+01
132.000      1.51898e+01
133.000      1.51078e+01
134.000      1.49922e+01
135.000      1.48437e+01
136.000      1.46568e+01
137.000      1.44257e+01
138.000      1.41488e+01
139.000      1.38325e+01
140.000      1.34899e+01
141.000      1.31380e+01
142.000      1.27924e+01
143.000      1.24630e+01
144.000      1.21527e+01
145.000      1.18575e+01
146.000      1.15704e+01
147.000      1.12837e+01
148.000      1.09911e+01
149.000      1.06881e+01
150.000      1.03709e+01
151.000      1.00360e+01
152.000      9.67895e+00
153.000      9.29494e+00
154.000      8.87937e+00
155.000      8.42940e+00
156.000      7.94638e+00
157.000      7.43883e+00
158.000      6.92477e+00
159.000      6.43201e+00
160.000      5.99476e+00
161.000      5.64672e+00
162.000      5.41235e+00
163.000      5.29915e+00
164.000      5.29412e+00
165.000      5.36572e+00
166.000      5.47097e+00
167.000      5.56505e+00
168.000      5.61071e+00
169.000      5.58492e+00
170.000      5.48179e+00
171.000      5.31183e+00
172.000      5.09838e+00
173.000      4.87204e+00
174.000      4.66419e+00
175.000      4.50046e+00
176.000      4.39558e+00
177.000      4.35066e+00
178.000      4.35397e+00
179.000      4.38495e+00
180.000      4.42040e+00
181.000      4.44100e+00
182.000      4.43619e+00
183.000      4.40642e+00
184.000      4.36273e+00
185.000      4.32417e+00
186.000      4.31415e+00
187.000      4.35606e+00
188.000      4.46870e+00
189.000      4.66185e+00
190.000      4.93288e+00
191.000      5.26573e+00
192.000      5.63287e+00
193.000      6.00060e+00
194.000      6.33598e+00
195.000      6.61357e+00
196.000      6.81978e+00
197.000      6.95367e+00
198.000      7.02453e+00
199.000      7.04725e+00
200.000      7.03759e+00
201.000      7.00878e+00
202.000      6.97053e+00
203.000      6.93032e+00
204.000      6.89596e+00
205.000      6.87781e+00
206.000      6.88919e+00
207.000      6.94405e+00
208.000      7.05279e+00
209.000      7.21786e+00
210.000      7.43141e+00
211.000      7.67659e+00
212.000      7.93224e+00
213.000      8.17938e+00
214.000      8.40684e+00
215.000      8.61380e+00
216.000      8.80850e+00
217.000      9.00382e+00
218.000      9.21150e+00
219.000      9.43708e+00
220.000      9.67702e+00
221.000      9.91874e+00
222.000      1.01436e+01
223.000      1.03319e+01
224.000      1.04695e+01
225.000      1.05528e+01
226.000      1.05914e+01
227.000      1.06062e+01
228.000      1.06230e+01
229.000      1.06625e+01
230.000      1.07319e+01
231.000      1.08192e+01
232.000      1.08942e+01
233.000      1.09163e+01
234.000      1.08449e+01
235.000      1.06513e+01
236.000      1.03267e+01
237.000      9.88587e+00
238.000      9.36497e+00
239.000      8.81511e+00
240.000      8.29350e+00
241.000      7.85393e+00
242.000      7.53869e+00
243.000      7.37299e+00
244.000      7.36264e+00
245.000      7.49462e+00
246.000      7.73949e+00
247.000      8.05468e+00
248.000      8.38796e+00
249.000      8.68137e+00
250.000      8.87622e+00
251.000      8.91970e+00
252.000      8.77261e+00
253.000      8.41665e+00
254.000      7.85881e+00
255.000      7.13103e+00
256.000      6.28477e+00
257.000      5.38170e+00
258.000      4.48342e+00
259.000      3.64289e+00
260.000      2.89952e+00
261.000      2.27789e+00
262.000      1.78906e+00
263.000      1.43274e+00
264.000      1.19919e+00
265.000      1.07048e+00
266.000      1.02182e+00
267.000      1.02360e+00
268.000      1.04484e+00
269.000      1.05749e+00
270.000      1.04075e+00
271.000      9.84108e-01
272.000      8.87961e-01
273.000      7.61841e-01
274.000      6.20786e-01
275.000      4.81184e-01
276.000      3.57391e-01
277.000      2.59980e-01
278.000      1.95769e-01
279.000      1.69126e-01
280.000      1.83702e-01
281.000      2.43692e-01
282.000      3.54053e-01
283.000      5.19519e-01
284.000      7.42792e-01
285.000      1.02265e+00
286.000      1.35291e+00
287.000      1.72289e+00
288.000      2.11950e+00
289.000      2.53033e+00
290.000      2.94651e+00
291.000      3.36415e+00
292.000      3.78362e+00
293.000      4.20720e+00
294.000      4.63595e+00
295.000      5.06748e+00
296.000      5.49528e+00
297.000      5.90984e+00
298.000      6.30076e+00
299.000      6.65889e+00
300.000      6.97799e+00
301.000      7.25550e+00
302.000      7.49286e+00
303.000      7.69534e+00
304.000      7.87164e+00
305.000      8.03293e+00
306.000      8.19160e+00
307.000      8.35983e+00
308.000      8.54833e+00
309.000      8.76553e+00
310.000      9.01721e+00
311.000      9.30639e+00
312.000      9.63309e+00
313.000      9.99426e+00
314.000      1.03841e+01
315.000      1.07954e+01
316.000      1.12218e+01
317.000      1.16608e+01
318.000      1.21171e+01
319.000      1.26042e+01
320.000      1.31451e+01
321.000      1.37697e+01
322.000      1.45110e+01
323.000      1.53987e+01
324.000      1.64525e+01
325.000      1.76751e+01
326.000      1.90473e+01
327.000      2.05263e+01
328.000      2.20487e+01
329.000      2.35378e+01
330.000      2.49141e+01
331.000      2.61067e+01
332.000      2.70633e+01
333.000      2.77561e+01
334.000      2.81838e+01
335.000      2.83692e+01
336.000      2.83545e+01
337.000      2.81948e+01
338.000      2.79520e+01
339.000      2.76878e+01
340.000      2.74584e+01
341.000      2.73085e+01
342.000      2.72671e+01
343.000      2.73452e+01
344.000      2.75361e+01
345.000      2.78169e+01
346.000      2.81531e+01
347.000      2.85012e+01
348.000      2.88117e+01
349.000      2.90313e+01
350.000      2.91053e+01
351.000      2.89815e+01
352.000      2.86165e+01
353.000      2.79819e+01
354.000      2.70713e+01
355.000      2.59027e+01
356.000      2.45181e+01
357.000      2.29771e+01
358.000      2.13475e+01
359.000      1.96945e+01
360.000      1.80723e+01
361.000      1.65188e+01
362.000      1.50560e+01
363.000      1.36935e+01
364.000      1.24341e+01
365.000      1.12792e+01
366.000      1.02314e+01
367.000      9.29534e+00
368.000      8.47615e+00
369.000      7.77714e+00
370.000      7.19700e+00
371.000      6.72798e+00
372.000      6.35546e+00
373.000      6.06000e+00
374.000      5.82189e+00
375.000      5.62789e+00
376.000      5.47818e+00
377.000      5.39105e+00
378.000      5.40277e+00
379.000      5.56148e+00
380.000      5.91595e+00
381.000      6.50212e+00
382.000      7.33130e+00
383.000      8.38352e+00
384.000      9.60766e+00
385.000      1.09282e+01
386.000      1.22560e+01
387.000      1.35000e+01
388.000      1.45774e+01
389.000      1.54195e+01
390.000      1.59752e+01
391.000      1.62103e+01
392.000      1.61073e+01
393.000      1.56652e+01
394.000      1.49008e+01
395.000      1.38505e+01
396.000      1.25720e+01
397.000      1.11427e+01
398.000      9.65491e+00
399.000      8.20549e+00
400.000      6.88380e+00
401.000      5.75883e+00
402.000      4.87002e+00
403.000      4.22383e+00
404.000      3.79696e+00
405.000      3.54490e+00
406.000      3.41272e+00
407.000      3.34520e+00
408.000      3.29399e+00
409.000      3.22150e+00
410.000      3.10212e+00
411.000      2.92236e+00
412.000      2.68053e+00
413.000      2.38616e+00
414.000      2.05861e+00
415.000      1.72421e+00
416.000      1.41201e+00
417.000      1.14876e+00
418.000      9.54168e-01
419.000      8.37441e-01
420.000      7.95821e-01
421.000      8.15257e-01
422.000      8.73126e-01
423.000      9.42496e-01
424.000      9.97216e-01
425.000      1.01680e+00
426.000      9.89976e-01
427.000      9.16050e-01
428.000      8.03721e-01
429.000      6.67859e-01
430.000      5.25308e-01
431.000      3.90999e-01
432.000      2.75366e-01
433.000      1.83480e-01
434.000      1.15664e-01
435.000      6.89816e-02
436.000      3.89214e-02
437.000      2.07760e-02
438.000      1.04919e-02
439.000      5.01264e-03
440.000      2.26566e-03
441.000      9.68815e-04
442.000      3.91927e-04
443.000      1.49998e-04
444.000      5.43107e-05
445.000      1.86038e-05
446.000      6.02888e-06
447.000      1.84837e-06
448.000      5.36115e-07
449.000      1.47111e-07
450.000      3.81900e-08
451.000      9.37933e-09
452.000      2.17927e-09
453.000      4.79037e-10
454.000      9.96195e-11
455.000      1.95991e-11
456.000      3.64794e-12
457.000      6.42356e-13
458.000      1.07009e-13
459.000      1.68649e-14
460.000      2.51458e-15
461.000      3.54702e-16
462.000      4.73346e-17
463.000      5.97603e-18
464.000      7.13779e-19
465.000      8.06552e-20
466.000      8.62221e-21
467.000      8.72012e-22
468.000      8.34342e-23
469.000      7.55237e-24
470.000      6.46755e-25
471.000      5.23980e-26
472.000      4.01612e-27
473.000      2.91216e-28
474.000      1.99776e-29
475.000      1.29655e-30
476.000      7.96068e-32
477.000      4.62413e-33
478.000      2.54113e-34
479.000      1.32112e-35
480.000      6.49793e-37
481.000      3.02361e-38
482.000      1.33105e-39
483.000      5.54344e-41
484.000      2.18415e-42
485.000      8.14147e-44
486.000      2.87105e-45
487.000      9.57849e-47
488.000      3.02323e-48
489.000      9.02738e-50
490.000      2.55018e-51
491.000      6.81549e-53
492.000      1.72322e-54
493.000      4.12195e-56
494.000      9.32785e-58
495.000      1.99700e-59
496.000      4.04476e-61
497.000      7.75040e-63
498.000      1.40499e-64
499.000      2.40958e-66
500.000      3.90954e-68
