# Gaussian folded, width=10 cm^-1
# [cm^-1] arbitrary
0.000      3.00000e+00
1.000      2.91796e+00
2.000      2.68508e+00
3.000      2.33749e+00
4.000      1.92514e+00
5.000      1.50000e+00
6.000      1.10570e+00
7.000      7.71085e-01
8.000      5.08727e-01
9.000      3.17529e-01
10.000      1.87500e-01
11.000      1.04746e-01
12.000      5.53590e-02
13.000      2.76795e-02
14.000      1.30933e-02
15.000      5.85983e-03
16.000      2.48237e-03
17.000      9.99357e-04
18.000      3.95308e-04
19.000      1.93212e-04
20.000      2.16704e-04
21.000      4.90080e-04
22.000      1.25759e-03
23.000      3.13243e-03
24.000      7.41758e-03
25.000      1.66602e-02
26.000      3.54879e-02
27.000      7.16998e-02
28.000      1.37424e-01
29.000      2.49909e-01
30.000      4.31263e-01
31.000      7.06330e-01
32.000      1.09809e+00
33.000      1.62063e+00
34.000      2.27088e+00
35.000      3.02138e+00
36.000      3.81724e+00
37.000      4.57978e+00
38.000      5.21797e+00
39.000      5.64574e+00
40.000      5.80084e+00
41.000      5.65968e+00
42.000      5.24317e+00
43.000      4.61168e+00
44.000      3.85071e+00
45.000      3.05202e+00
46.000      2.29584e+00
47.000      1.63887e+00
48.000      1.11007e+00
49.000      7.13460e-01
50.000      4.35378e-01
51.000      2.53076e-01
52.000      1.42192e-01
53.000      8.19422e-02
54.000      5.80052e-02
55.000      6.37256e-02
56.000      1.00403e-01
57.000      1.77107e-01
58.000      3.09943e-01
59.000      5.20257e-01
60.000      8.31076e-01
61.000      1.26141e+00
62.000      1.81882e+00
63.000      2.49175e+00
64.000      3.24405e+00
65.000      4.01456e+00
66.000      4.72329e+00
67.000      5.28437e+00
68.000      5.62289e+00
69.000      5.69128e+00
70.000      5.48026e+00
71.000      5.02095e+00
72.000      4.37753e+00
73.000      3.63297e+00
74.000      2.87231e+00
75.000      2.16838e+00
76.000      1.57341e+00
77.000      1.11746e+00
78.000      8.12567e-01
79.000      6.59729e-01
80.000      6.55574e-01
81.000      7.96278e-01
82.000      1.07749e+00
83.000      1.49065e+00
84.000      2.01739e+00
85.000      2.62467e+00
86.000      3.26341e+00
87.000      3.87217e+00
88.000      4.38616e+00
89.000      4.74932e+00
90.000      4.92625e+00
91.000      4.91019e+00
92.000      4.72479e+00
93.000      4.41936e+00
94.000      4.05971e+00
95.000      3.71764e+00
96.000      3.46189e+00
97.000      3.35180e+00
98.000      3.43322e+00
99.000      3.73530e+00
100.000      4.26726e+00
101.000      5.01535e+00
102.000      5.94205e+00
103.000      6.98936e+00
104.000      8.08744e+00
105.000      9.16710e+00
106.000      1.01726e+01
107.000      1.10702e+01
108.000      1.18491e+01
109.000      1.25140e+01
110.000      1.30727e+01
111.000      1.35231e+01
112.000      1.38463e+01
113.000      1.40079e+01
114.000      1.39670e+01
115.000      1.36892e+01
116.000      1.31586e+01
117.000      1.23852e+01
118.000      1.14054e+01
119.000      1.02784e+01
120.000      9.07934e+00
121.000      7.89253e+00
122.000      6.80500e+00
123.000      5.90016e+00
124.000      5.25111e+00
125.000      4.91334e+00
126.000      4.91783e+00
127.000      5.26574e+00
128.000      5.92652e+00
129.000      6.84070e+00
130.000      7.92740e+00
131.000      9.09598e+00
132.000      1.02594e+01
133.000      1.13464e+01
134.000      1.23091e+01
135.000      1.31248e+01
136.000      1.37916e+01
137.000      1.43202e+01
138.000      1.47254e+01
139.000      1.50188e+01
140.000      1.52054e+01
141.000      1.52827e+01
142.000      1.52421e+01
143.000      1.50719e+01
144.000      1.47611e+01
145.000      1.43056e+01
146.000      1.37142e+01
147.000      1.30135e+01
148.000      1.22488e+01
149.000      1.14810e+01
150.000      1.07769e+01
151.000      1.01981e+01
152.000      9.78957e+00
153.000      9.57266e+00
154.000      9.54331e+00
155.000      9.67582e+00
156.000      9.92972e+00
157.000      1.02570e+01
158.000      1.06080e+01
159.000      1.09341e+01
160.000      1.11906e+01
161.000      1.13378e+01
162.000      1.13448e+01
163.000      1.11928e+01
164.000      1.08779e+01
165.000      1.04111e+01
166.000      9.81514e+00
167.000      9.11861e+00
168.000      8.35109e+00
169.000      7.53989e+00
170.000      6.71006e+00
171.000      5.88651e+00
172.000      5.09616e+00
173.000      4.36828e+00
174.000      3.73251e+00
175.000      3.21519e+00
176.000      2.83577e+00
177.000      2.60473e+00
178.000      2.52383e+00
179.000      2.58823e+00
180.000      2.78920e+00
181.000      3.11571e+00
182.000      3.55385e+00
183.000      4.08402e+00
184.000      4.67724e+00
185.000      5.29260e+00
186.000      5.87813e+00
187.000      6.37615e+00
188.000      6.73233e+00
189.000      6.90630e+00
190.000      6.88047e+00
191.000      6.66435e+00
192.000      6.29276e+00
193.000      5.81877e+00
194.000      5.30314e+00
195.000      4.80350e+00
196.000      4.36534e+00
197.000      4.01676e+00
198.000      3.76704e+00
199.000      3.60860e+00
200.000      3.52147e+00
201.000      3.47892e+00
202.000      3.45307e+00
203.000      3.41959e+00
204.000      3.36040e+00
205.000      3.26452e+00
206.000      3.12705e+00
207.000      2.94746e+00
208.000      2.72805e+00
209.000      2.47320e+00
210.000      2.18954e+00
211.000      1.88638e+00
212.000      1.57578e+00
213.000      1.27169e+00
214.000      9.88143e-01
215.000      7.37055e-01
216.000      5.26372e-01
217.000      3.59127e-01
218.000      2.33655e-01
219.000      1.44754e-01
220.000      8.52881e-02
221.000      4.77442e-02
222.000      2.53736e-02
223.000      1.27935e-02
224.000      6.11676e-03
225.000      2.77197e-03
226.000      1.19026e-03
227.000      4.84128e-04
228.000      1.86484e-04
229.000      6.80153e-05
230.000      2.34849e-05
231.000      7.67596e-06
232.000      2.37462e-06
233.000      6.95247e-07
234.000      1.92635e-07
235.000      5.05079e-08
236.000      1.25312e-08
237.000      2.94181e-09
238.000      6.53456e-10
239.000      1.37336e-10
240.000      2.73094e-11
241.000      5.13796e-12
242.000      9.14563e-13
243.000      1.54024e-13
244.000      2.45716e-14
245.000      3.94231e-15
246.000      2.30228e-15
247.000      1.23283e-14
248.000      8.00981e-14
249.000      4.95090e-13
250.000      2.89548e-12
251.000      1.60208e-11
252.000      8.38639e-11
253.000      4.15329e-10
254.000      1.94597e-09
255.000      8.62599e-09
256.000      3.61751e-08
257.000      1.43528e-07
258.000      5.38761e-07
259.000      1.91331e-06
260.000      6.42849e-06
261.000      2.04347e-05
262.000      6.14567e-05
263.000      1.74871e-04
264.000      4.70788e-04
265.000      1.19924e-03
266.000      2.89054e-03
267.000      6.59294e-03
268.000      1.42315e-02
269.000      2.90781e-02
270.000      5.62501e-02
271.000      1.03056e-01
272.000      1.78909e-01
273.000      2.94526e-01
274.000      4.60271e-01
275.000      6.83872e-01
276.000      9.68193e-01
277.000      1.31009e+00
278.000      1.70123e+00
279.000      2.13113e+00
280.000      2.59124e+00
281.000      3.07800e+00
282.000      3.59259e+00
283.000      4.13596e+00
284.000      4.70067e+00
285.000      5.26301e+00
286.000      5.78045e+00
287.000      6.19795e+00
288.000      6.46335e+00
289.000      6.54759e+00
290.000      6.46266e+00
291.000      6.26988e+00
292.000      6.07424e+00
293.000      6.00508e+00
294.000      6.18813e+00
295.000      6.71678e+00
296.000      7.62985e+00
297.000      8.90119e+00
298.000      1.04425e+01
299.000      1.21174e+01
300.000      1.37626e+01
301.000      1.52115e+01
302.000      1.63162e+01
303.000      1.69660e+01
304.000      1.71018e+01
305.000      1.67251e+01
306.000      1.59013e+01
307.000      1.47557e+01
308.000      1.34591e+01
309.000      1.22051e+01
310.000      1.11787e+01
311.000      1.05237e+01
312.000      1.03149e+01
313.000      1.05423e+01
314.000      1.11130e+01
315.000      1.18708e+01
316.000      1.26315e+01
317.000      1.32250e+01
318.000      1.35377e+01
319.000      1.35431e+01
320.000      1.33147e+01
321.000      1.30184e+01
322.000      1.28838e+01
323.000      1.31617e+01
324.000      1.40755e+01
325.000      1.57766e+01
326.000      1.83116e+01
327.000      2.16070e+01
328.000      2.54746e+01
329.000      2.96347e+01
330.000      3.37557e+01
331.000      3.75013e+01
332.000      4.05774e+01
333.000      4.27700e+01
334.000      4.39678e+01
335.000      4.41660e+01
336.000      4.34541e+01
337.000      4.19931e+01
338.000      3.99878e+01
339.000      3.76597e+01
340.000      3.52227e+01
341.000      3.28646e+01
342.000      3.07345e+01
343.000      2.89393e+01
344.000      2.75467e+01
345.000      2.65946e+01
346.000      2.61006e+01
347.000      2.60666e+01
348.000      2.64749e+01
349.000      2.72773e+01
350.000      2.83835e+01
351.000      2.96577e+01
352.000      3.09271e+01
353.000      3.20055e+01
354.000      3.27235e+01
355.000      3.29560e+01
356.000      3.26396e+01
357.000      3.17737e+01
358.000      3.04090e+01
359.000      2.86295e+01
360.000      2.65355e+01
361.000      2.42324e+01
362.000      2.18246e+01
363.000      1.94122e+01
364.000      1.70871e+01
365.000      1.49263e+01
366.000      1.29841e+01
367.000      1.12869e+01
368.000      9.83201e+00
369.000      8.59498e+00
370.000      7.54110e+00
371.000      6.63937e+00
372.000      5.87325e+00
373.000      5.24520e+00
374.000      4.77390e+00
375.000      4.48632e+00
376.000      4.40858e+00
377.000      4.55961e+00
378.000      4.94982e+00
379.000      5.58400e+00
380.000      6.46506e+00
381.000      7.59424e+00
382.000      8.96555e+00
383.000      1.05551e+01
384.000      1.23108e+01
385.000      1.41481e+01
386.000      1.59581e+01
387.000      1.76266e+01
388.000      1.90583e+01
389.000      2.01981e+01
390.000      2.10385e+01
391.000      2.16110e+01
392.000      2.19650e+01
393.000      2.21423e+01
394.000      2.21583e+01
395.000      2.19960e+01
396.000      2.16140e+01
397.000      2.09642e+01
398.000      2.00115e+01
399.000      1.87482e+01
400.000      1.72012e+01
401.000      1.54298e+01
402.000      1.35175e+01
403.000      1.15603e+01
404.000      9.65470e+00
405.000      7.88625e+00
406.000      6.32123e+00
407.000      5.00113e+00
408.000      3.94097e+00
409.000      3.13178e+00
410.000      2.54669e+00
411.000      2.14959e+00
412.000      1.90419e+00
413.000      1.78104e+00
414.000      1.76039e+00
415.000      1.83018e+00
416.000      1.98000e+00
417.000      2.19372e+00
418.000      2.44419e+00
419.000      2.69247e+00
420.000      2.89289e+00
421.000      3.00220e+00
422.000      2.99004e+00
423.000      2.84674e+00
424.000      2.58591e+00
425.000      2.24102e+00
426.000      1.85739e+00
427.000      1.48237e+00
428.000      1.15655e+00
429.000      9.07993e-01
430.000      7.49849e-01
431.000      6.80941e-01
432.000      6.88080e-01
433.000      7.49315e-01
434.000      8.37669e-01
435.000      9.25235e-01
436.000      9.87408e-01
437.000      1.00671e+00
438.000      9.75355e-01
439.000      8.95801e-01
440.000      7.79062e-01
441.000      6.41250e-01
442.000      4.99438e-01
443.000      3.68035e-01
444.000      2.56585e-01
445.000      1.69238e-01
446.000      1.05605e-01
447.000      6.23437e-02
448.000      3.48191e-02
449.000      1.83976e-02
450.000      9.19648e-03
451.000      4.34911e-03
452.000      1.94579e-03
453.000      8.23589e-04
454.000      3.29794e-04
455.000      1.24937e-04
456.000      4.47773e-05
457.000      1.51825e-05
458.000      4.87017e-06
459.000      1.47796e-06
460.000      4.24327e-07
461.000      1.15254e-07
462.000      2.96161e-08
463.000      7.19976e-09
464.000      1.65587e-09
465.000      3.60289e-10
466.000      7.41641e-11
467.000      1.44429e-11
468.000      2.66092e-12
469.000      4.63796e-13
470.000      7.64787e-14
471.000      1.19308e-14
472.000      1.76084e-15
473.000      2.45859e-16
474.000      3.24765e-17
475.000      4.05854e-18
476.000      4.79832e-19
477.000      5.36692e-20
478.000      5.67910e-21
479.000      5.68527e-22
480.000      5.38443e-23
481.000      4.82444e-24
482.000      4.08951e-25
483.000      3.27954e-26
484.000      2.48813e-27
485.000      1.78587e-28
486.000      1.21268e-29
487.000      7.79035e-31
488.000      4.73464e-32
489.000      2.72229e-33
490.000      1.48081e-34
491.000      7.62048e-36
492.000      3.71007e-37
493.000      1.70884e-38
494.000      7.44623e-40
495.000      3.06965e-41
496.000      1.19718e-42
497.000      4.41721e-44
498.000      1.54189e-45
499.000      5.09188e-47
500.000      1.59081e-48
