# Gaussian folded, width=10 cm^-1
# [cm^-1] arbitrary
0.000      3.00000e+00
1.000      2.91796e+00
2.000      2.68508e+00
3.000      2.33749e+00
4.000      1.92514e+00
5.000      1.50000e+00
6.000      1.10570e+00
7.000      7.71085e-01
8.000      5.08727e-01
9.000      3.17530e-01
10.000      1.87501e-01
11.000      1.04749e-01
12.000      5.53712e-02
13.000      2.77184e-02
14.000      1.32110e-02
15.000      6.19719e-03
16.000      3.39879e-03
17.000      3.35724e-03
18.000      6.14128e-03
19.000      1.34551e-02
20.000      2.92049e-02
21.000      6.04926e-02
22.000      1.18852e-01
23.000      2.21292e-01
24.000      3.90422e-01
25.000      6.52696e-01
26.000      1.03396e+00
27.000      1.55209e+00
28.000      2.20782e+00
29.000      2.97607e+00
30.000      3.80156e+00
31.000      4.60173e+00
32.000      5.27863e+00
33.000      5.73801e+00
34.000      5.91069e+00
35.000      5.76968e+00
36.000      5.33707e+00
37.000      4.67851e+00
38.000      3.88709e+00
39.000      3.06236e+00
40.000      2.29111e+00
41.000      1.63525e+00
42.000      1.12891e+00
43.000      7.83491e-01
44.000      5.97110e-01
45.000      5.64349e-01
46.000      6.82856e-01
47.000      9.54790e-01
48.000      1.38280e+00
49.000      1.96190e+00
50.000      2.66992e+00
51.000      3.46028e+00
52.000      4.26077e+00
53.000      4.98056e+00
54.000      5.52512e+00
55.000      5.81578e+00
56.000      5.80797e+00
57.000      5.50239e+00
58.000      4.94504e+00
59.000      4.21623e+00
60.000      3.41227e+00
61.000      2.62601e+00
62.000      1.93196e+00
63.000      1.37950e+00
64.000      9.94248e-01
65.000      7.84929e-01
66.000      7.51693e-01
67.000      8.92049e-01
68.000      1.20217e+00
69.000      1.67340e+00
70.000      2.28595e+00
71.000      3.00306e+00
72.000      3.76939e+00
73.000      4.51616e+00
74.000      5.17322e+00
75.000      5.68547e+00
76.000      6.02871e+00
77.000      6.21956e+00
78.000      6.31524e+00
79.000      6.40251e+00
80.000      6.57821e+00
81.000      6.92707e+00
82.000      7.50293e+00
83.000      8.31863e+00
84.000      9.34641e+00
85.000      1.05273e+01
86.000      1.17854e+01
87.000      1.30407e+01
88.000      1.42180e+01
89.000      1.52499e+01
90.000      1.60752e+01
91.000      1.66390e+01
92.000      1.68949e+01
93.000      1.68123e+01
94.000      1.63859e+01
95.000      1.56430e+01
96.000      1.46459e+01
97.000      1.34850e+01
98.000      1.22660e+01
99.000      1.10931e+01
100.000      1.00545e+01
101.000      9.21338e+00
102.000      8.60686e+00
103.000      8.25134e+00
104.000      8.15104e+00
105.000      8.30566e+00
106.000      8.71391e+00
107.000      9.37220e+00
108.000      1.02692e+01
109.000      1.13792e+01
110.000      1.26563e+01
111.000      1.40333e+01
112.000      1.54250e+01
113.000      1.67370e+01
114.000      1.78774e+01
115.000      1.87698e+01
116.000      1.93638e+01
117.000      1.96409e+01
118.000      1.96145e+01
119.000      1.93254e+01
120.000      1.88334e+01
121.000      1.82085e+01
122.000      1.75213e+01
123.000      1.68357e+01
124.000      1.62019e+01
125.000      1.56519e+01
126.000      1.51978e+01
127.000      1.48322e+01
128.000      1.45327e+01
129.000      1.42687e+01
130.000      1.40083e+01
131.000      1.37251e+01
132.000      1.34018e+01
133.000      1.30323e+01
134.000      1.26200e+01
135.000      1.21752e+01
136.000      1.17123e+01
137.000      1.12464e+01
138.000      1.07904e+01
139.000      1.03538e+01
140.000      9.94055e+00
141.000      9.54977e+00
142.000      9.17565e+00
143.000      8.80911e+00
144.000      8.43982e+00
145.000      8.05851e+00
146.000      7.65927e+00
147.000      7.24098e+00
148.000      6.80770e+00
149.000      6.36756e+00
150.000      5.93064e+00
151.000      5.50616e+00
152.000      5.09994e+00
153.000      4.71283e+00
154.000      4.34071e+00
155.000      3.97599e+00
156.000      3.61034e+00
157.000      3.23795e+00
158.000      2.85837e+00
159.000      2.47849e+00
160.000      2.11321e+00
161.000      1.78467e+00
162.000      1.52040e+00
163.000      1.35037e+00
164.000      1.30351e+00
165.000      1.40383e+00
166.000      1.66654e+00
167.000      2.09476e+00
168.000      2.67744e+00
169.000      3.38935e+00
170.000      4.19372e+00
171.000      5.04729e+00
172.000      5.90725e+00
173.000      6.73839e+00
174.000      7.51876e+00
175.000      8.24240e+00
176.000      8.91821e+00
177.000      9.56487e+00
178.000      1.02031e+01
179.000      1.08466e+01
180.000      1.14955e+01
181.000      1.21324e+01
182.000      1.27259e+01
183.000      1.32381e+01
184.000      1.36357e+01
185.000      1.39009e+01
186.000      1.40371e+01
187.000      1.40689e+01
188.000      1.40352e+01
189.000      1.39788e+01
190.000      1.39373e+01
191.000      1.39361e+01
192.000      1.39884e+01
193.000      1.40979e+01
194.000      1.42645e+01
195.000      1.44889e+01
196.000      1.47760e+01
197.000      1.51344e+01
198.000      1.55750e+01
199.000      1.61074e+01
200.000      1.67352e+01
201.000      1.74514e+01
202.000      1.82333e+01
203.000      1.90395e+01
204.000      1.98101e+01
205.000      2.04710e+01
206.000      2.09440e+01
207.000      2.11597e+01
208.000      2.10711e+01
209.000      2.06642e+01
210.000      1.99623e+01
211.000      1.90232e+01
212.000      1.79296e+01
213.000      1.67773e+01
214.000      1.56633e+01
215.000      1.46765e+01
216.000      1.38918e+01
217.000      1.33663e+01
218.000      1.31349e+01
219.000      1.32069e+01
220.000      1.35627e+01
221.000      1.41551e+01
222.000      1.49157e+01
223.000      1.57662e+01
224.000      1.66325e+01
225.000      1.74560e+01
226.000      1.81994e+01
227.000      1.88458e+01
228.000      1.93915e+01
229.000      1.98383e+01
230.000      2.01868e+01
231.000      2.04342e+01
232.000      2.05757e+01
233.000      2.06088e+01
234.000      2.05370e+01
235.000      2.03721e+01
236.000      2.01343e+01
237.000      1.98501e+01
238.000      1.95485e+01
239.000      1.92575e+01
240.000      1.90006e+01
241.000      1.87943e+01
242.000      1.86474e+01
243.000      1.85611e+01
244.000      1.85305e+01
245.000      1.85473e+01
246.000      1.86008e+01
247.000      1.86783e+01
248.000      1.87625e+01
249.000      1.88274e+01
250.000      1.88344e+01
251.000      1.87321e+01
252.000      1.84610e+01
253.000      1.79644e+01
254.000      1.72016e+01
255.000      1.61603e+01
256.000      1.48627e+01
257.000      1.33656e+01
258.000      1.17519e+01
259.000      1.01188e+01
260.000      8.56331e+00
261.000      7.16985e+00
262.000      6.00080e+00
263.000      5.09083e+00
264.000      4.44558e+00
265.000      4.04462e+00
266.000      3.84853e+00
267.000      3.80916e+00
268.000      3.88146e+00
269.000      4.03369e+00
270.000      4.25329e+00
271.000      4.54603e+00
272.000      4.92843e+00
273.000      5.41588e+00
274.000      6.01024e+00
275.000      6.69136e+00
276.000      7.41496e+00
277.000      8.11753e+00
278.000      8.72656e+00
279.000      9.17310e+00
280.000      9.40414e+00
281.000      9.39232e+00
282.000      9.14138e+00
283.000      8.68640e+00
284.000      8.08795e+00
285.000      7.42087e+00
286.000      6.75963e+00
287.000      6.16392e+00
288.000      5.66848e+00
289.000      5.28047e+00
290.000      4.98488e+00
291.000      4.75586e+00
292.000      4.56965e+00
293.000      4.41415e+00
294.000      4.29182e+00
295.000      4.21509e+00
296.000      4.19660e+00
297.000      4.23845e+00
298.000      4.32517e+00
299.000      4.42361e+00
300.000      4.49030e+00
301.000      4.48375e+00
302.000      4.37715e+00
303.000      4.16699e+00
304.000      3.87441e+00
305.000      3.53949e+00
306.000      3.21086e+00
307.000      2.93473e+00
308.000      2.74684e+00
309.000      2.66895e+00
310.000      2.70938e+00
311.000      2.86582e+00
312.000      3.12805e+00
313.000      3.47977e+00
314.000      3.89939e+00
315.000      4.36104e+00
316.000      4.83670e+00
317.000      5.29978e+00
318.000      5.72931e+00
319.000      6.11338e+00
320.000      6.45025e+00
321.000      6.74689e+00
322.000      7.01563e+00
323.000      7.27076e+00
324.000      7.52687e+00
325.000      7.79956e+00
326.000      8.10800e+00
327.000      8.47707e+00
328.000      8.93698e+00
329.000      9.51907e+00
330.000      1.02482e+01
331.000      1.11341e+01
332.000      1.21634e+01
333.000      1.32970e+01
334.000      1.44715e+01
335.000      1.56055e+01
336.000      1.66097e+01
337.000      1.73970e+01
338.000      1.78929e+01
339.000      1.80446e+01
340.000      1.78280e+01
341.000      1.72522e+01
342.000      1.63599e+01
343.000      1.52228e+01
344.000      1.39313e+01
345.000      1.25795e+01
346.000      1.12497e+01
347.000      1.00010e+01
348.000      8.86367e+00
349.000      7.84393e+00
350.000      6.93411e+00
351.000      6.12591e+00
352.000      5.42050e+00
353.000      4.83189e+00
354.000      4.38257e+00
355.000      4.09350e+00
356.000      3.97286e+00
357.000      4.00812e+00
358.000      4.16458e+00
359.000      4.39091e+00
360.000      4.62975e+00
361.000      4.82975e+00
362.000      4.95541e+00
363.000      4.99184e+00
364.000      4.94369e+00
365.000      4.82906e+00
366.000      4.67081e+00
367.000      4.48804e+00
368.000      4.29042e+00
369.000      4.07691e+00
370.000      3.83920e+00
371.000      3.56831e+00
372.000      3.26208e+00
373.000      2.93081e+00
374.000      2.59885e+00
375.000      2.30172e+00
376.000      2.07947e+00
377.000      1.96850e+00
378.000      1.99416e+00
379.000      2.16604e+00
380.000      2.47650e+00
381.000      2.90226e+00
382.000      3.40775e+00
383.000      3.94922e+00
384.000      4.47852e+00
385.000      4.94675e+00
386.000      5.30778e+00
387.000      5.52234e+00
388.000      5.56251e+00
389.000      5.41613e+00
390.000      5.08974e+00
391.000      4.60896e+00
392.000      4.01546e+00
393.000      3.36081e+00
394.000      2.69848e+00
395.000      2.07581e+00
396.000      1.52800e+00
397.000      1.07508e+00
398.000      7.22262e-01
399.000      4.62887e-01
400.000      2.82754e-01
401.000      1.64497e-01
402.000      9.10774e-02
403.000      4.79612e-02
404.000      2.40074e-02
405.000      1.14170e-02
406.000      5.15591e-03
407.000      2.21018e-03
408.000      8.99003e-04
409.000      3.46867e-04
410.000      1.26913e-04
411.000      4.40234e-05
412.000      1.44742e-05
413.000      4.50979e-06
414.000      1.33134e-06
415.000      3.72330e-07
416.000      9.86310e-08
417.000      2.47453e-08
418.000      5.87919e-09
419.000      1.32266e-09
420.000      2.81741e-10
421.000      5.68181e-11
422.000      1.08475e-11
423.000      1.96045e-12
424.000      3.35380e-13
425.000      5.43071e-14
426.000      8.32325e-15
427.000      1.20734e-15
428.000      1.65750e-16
429.000      2.15350e-17
430.000      2.64787e-18
431.000      3.08103e-19
432.000      3.39258e-20
433.000      3.53502e-21
434.000      3.48556e-22
435.000      3.25209e-23
436.000      2.87114e-24
437.000      2.39852e-25
438.000      1.89593e-26
439.000      1.41803e-27
440.000      1.00352e-28
441.000      6.71962e-30
442.000      4.25727e-31
443.000      2.55202e-32
444.000      1.44743e-33
445.000      7.76734e-35
446.000      3.94368e-36
447.000      1.89445e-37
448.000      8.61026e-39
449.000      3.70251e-40
450.000      1.50634e-41
451.000      5.79816e-43
452.000      2.11154e-44
453.000      7.27527e-46
454.000      2.37157e-47
455.000      7.31407e-49
456.000      2.13411e-50
457.000      5.89127e-52
458.000      1.53863e-53
459.000      3.80179e-55
460.000      8.88738e-57
461.000      1.96557e-58
462.000      4.11274e-60
463.000      8.14145e-62
464.000      1.52475e-63
465.000      2.70161e-65
466.000      4.52868e-67
467.000      7.18200e-69
468.000      1.07756e-70
469.000      1.52955e-72
470.000      2.05405e-74
471.000      2.60962e-76
472.000      3.13667e-78
473.000      3.56682e-80
474.000      3.83721e-82
475.000      3.90545e-84
476.000      3.76052e-86
477.000      3.42567e-88
478.000      2.95233e-90
479.000      2.40715e-92
480.000      1.85679e-94
481.000      1.35501e-96
482.000      9.35493e-99
483.000     6.11025e-101
484.000     3.77570e-103
485.000     2.20726e-105
486.000     1.22076e-107
487.000     6.38744e-110
488.000     3.16185e-112
489.000     1.48073e-114
490.000     6.56035e-117
491.000     2.74978e-119
492.000     1.09041e-121
493.000     4.09069e-124
494.000     1.45185e-126
495.000     4.87492e-129
496.000     1.54857e-131
497.000     4.65385e-134
498.000     1.32316e-136
499.000     3.55902e-139
500.000     9.05664e-142
