# Gaussian folded, width=10 cm^-1
# [cm^-1] arbitrary
0.000      3.00000e+00
1.000      2.91796e+00
2.000      2.68508e+00
3.000      2.33749e+00
4.000      1.92514e+00
5.000      1.50000e+00
6.000      1.10570e+00
7.000      7.71085e-01
8.000      5.08727e-01
9.000      3.17529e-01
10.000      1.87500e-01
11.000      1.04746e-01
12.000      5.53592e-02
13.000      2.76800e-02
14.000      1.30949e-02
15.000      5.86545e-03
16.000      2.50080e-03
17.000      1.05652e-03
18.000      5.62984e-04
19.000      6.58320e-04
20.000      1.43654e-03
21.000      3.51449e-03
22.000      8.34479e-03
23.000      1.88247e-02
24.000      4.02365e-02
25.000      8.14647e-02
26.000      1.56239e-01
27.000      2.83863e-01
28.000      4.88613e-01
29.000      7.96890e-01
30.000      1.23154e+00
31.000      1.80367e+00
32.000      2.50363e+00
33.000      3.29408e+00
34.000      4.10864e+00
35.000      4.85859e+00
36.000      5.44781e+00
37.000      5.79274e+00
38.000      5.84182e+00
39.000      5.58810e+00
40.000      5.07086e+00
41.000      4.36564e+00
42.000      3.56625e+00
43.000      2.76453e+00
44.000      2.03399e+00
45.000      1.42088e+00
46.000      9.43545e-01
47.000      5.98173e-01
48.000      3.67701e-01
49.000      2.30966e-01
50.000      1.70037e-01
51.000      1.74960e-01
52.000      2.45849e-01
53.000      3.92535e-01
54.000      6.31867e-01
55.000      9.82649e-01
56.000      1.45850e+00
57.000      2.05957e+00
58.000      2.76509e+00
59.000      3.52931e+00
60.000      4.28328e+00
61.000      4.94360e+00
62.000      5.42709e+00
63.000      5.66783e+00
64.000      5.63194e+00
65.000      5.32536e+00
66.000      4.79238e+00
67.000      4.10535e+00
68.000      3.34907e+00
69.000      2.60470e+00
70.000      1.93750e+00
71.000      1.39113e+00
72.000      9.88621e-01
73.000      7.38069e-01
74.000      6.40152e-01
75.000      6.94321e-01
76.000      9.01482e-01
77.000      1.26224e+00
78.000      1.77133e+00
79.000      2.41022e+00
80.000      3.14095e+00
81.000      3.90430e+00
82.000      4.62456e+00
83.000      5.22127e+00
84.000      5.62570e+00
85.000      5.79810e+00
86.000      5.74047e+00
87.000      5.50078e+00
88.000      5.16678e+00
89.000      4.85030e+00
90.000      4.66592e+00
91.000      4.70882e+00
92.000      5.03716e+00
93.000      5.66246e+00
94.000      6.54993e+00
95.000      7.62799e+00
96.000      8.80441e+00
97.000      9.98478e+00
98.000      1.10887e+01
99.000      1.20601e+01
100.000      1.28690e+01
101.000      1.35064e+01
102.000      1.39741e+01
103.000      1.42737e+01
104.000      1.44000e+01
105.000      1.43388e+01
106.000      1.40714e+01
107.000      1.35834e+01
108.000      1.28746e+01
109.000      1.19675e+01
110.000      1.09102e+01
111.000      9.77444e+00
112.000      8.64756e+00
113.000      7.62068e+00
114.000      6.77675e+00
115.000      6.18073e+00
116.000      5.87436e+00
117.000      5.87568e+00
118.000      6.18201e+00
119.000      6.77414e+00
120.000      7.61945e+00
121.000      8.67325e+00
122.000      9.87881e+00
123.000      1.11679e+01
124.000      1.24636e+01
125.000      1.36866e+01
126.000      1.47629e+01
127.000      1.56335e+01
128.000      1.62611e+01
129.000      1.66337e+01
130.000      1.67635e+01
131.000      1.66824e+01
132.000      1.64342e+01
133.000      1.60662e+01
134.000      1.56211e+01
135.000      1.51312e+01
136.000      1.46168e+01
137.000      1.40867e+01
138.000      1.35424e+01
139.000      1.29844e+01
140.000      1.24174e+01
141.000      1.18545e+01
142.000      1.13188e+01
143.000      1.08406e+01
144.000      1.04525e+01
145.000      1.01820e+01
146.000      1.00454e+01
147.000      1.00435e+01
148.000      1.01606e+01
149.000      1.03675e+01
150.000      1.06253e+01
151.000      1.08902e+01
152.000      1.11182e+01
153.000      1.12680e+01
154.000      1.13049e+01
155.000      1.12051e+01
156.000      1.09594e+01
157.000      1.05751e+01
158.000      1.00755e+01
159.000      9.49491e+00
160.000      8.87122e+00
161.000      8.23787e+00
162.000      7.61816e+00
163.000      7.02341e+00
164.000      6.45560e+00
165.000      5.91282e+00
166.000      5.39525e+00
167.000      4.90921e+00
168.000      4.46772e+00
169.000      4.08752e+00
170.000      3.78418e+00
171.000      3.56725e+00
172.000      3.43767e+00
173.000      3.38790e+00
174.000      3.40452e+00
175.000      3.47155e+00
176.000      3.57322e+00
177.000      3.69540e+00
178.000      3.82593e+00
179.000      3.95481e+00
180.000      4.07466e+00
181.000      4.18186e+00
182.000      4.27749e+00
183.000      4.36737e+00
184.000      4.46078e+00
185.000      4.56794e+00
186.000      4.69700e+00
187.000      4.85154e+00
188.000      5.02936e+00
189.000      5.22297e+00
190.000      5.42152e+00
191.000      5.61360e+00
192.000      5.78990e+00
193.000      5.94489e+00
194.000      6.07699e+00
195.000      6.18724e+00
196.000      6.27731e+00
197.000      6.34776e+00
198.000      6.39731e+00
199.000      6.42379e+00
200.000      6.42610e+00
201.000      6.40696e+00
202.000      6.37527e+00
203.000      6.34766e+00
204.000      6.34844e+00
205.000      6.40770e+00
206.000      6.55722e+00
207.000      6.82426e+00
208.000      7.22427e+00
209.000      7.75383e+00
210.000      8.38635e+00
211.000      9.07227e+00
212.000      9.74489e+00
213.000      1.03312e+01
214.000      1.07652e+01
215.000      1.10011e+01
216.000      1.10221e+01
217.000      1.08430e+01
218.000      1.05061e+01
219.000      1.00715e+01
220.000      9.60376e+00
221.000      9.16020e+00
222.000      8.78141e+00
223.000      8.48807e+00
224.000      8.28284e+00
225.000      8.15633e+00
226.000      8.09431e+00
227.000      8.08337e+00
228.000      8.11332e+00
229.000      8.17604e+00
230.000      8.26236e+00
231.000      8.35907e+00
232.000      8.44850e+00
233.000      8.51126e+00
234.000      8.53165e+00
235.000      8.50333e+00
236.000      8.43275e+00
237.000      8.33828e+00
238.000      8.24513e+00
239.000      8.17734e+00
240.000      8.14979e+00
241.000      8.16279e+00
242.000      8.20098e+00
243.000      8.23661e+00
244.000      8.23588e+00
245.000      8.16659e+00
246.000      8.00498e+00
247.000      7.74044e+00
248.000      7.37735e+00
249.000      6.93386e+00
250.000      6.43811e+00
251.000      5.92288e+00
252.000      5.41978e+00
253.000      4.95456e+00
254.000      4.54420e+00
255.000      4.19632e+00
256.000      3.91039e+00
257.000      3.68003e+00
258.000      3.49564e+00
259.000      3.34682e+00
260.000      3.22434e+00
261.000      3.12146e+00
262.000      3.03450e+00
263.000      2.96248e+00
264.000      2.90577e+00
265.000      2.86424e+00
266.000      2.83538e+00
267.000      2.81327e+00
268.000      2.78864e+00
269.000      2.75019e+00
270.000      2.68651e+00
271.000      2.58802e+00
272.000      2.44869e+00
273.000      2.26701e+00
274.000      2.04653e+00
275.000      1.79580e+00
276.000      1.52770e+00
277.000      1.25818e+00
278.000      1.00449e+00
279.000      7.83130e-01
280.000      6.08103e-01
281.000      4.89652e-01
282.000      4.33716e-01
283.000      4.41932e-01
284.000      5.12005e-01
285.000      6.38411e-01
286.000      8.13601e-01
287.000      1.02995e+00
288.000      1.28245e+00
289.000      1.57154e+00
290.000      1.90509e+00
291.000      2.29831e+00
292.000      2.77064e+00
293.000      3.33988e+00
294.000      4.01489e+00
295.000      4.78886e+00
296.000      5.63585e+00
297.000      6.51198e+00
298.000      7.36190e+00
299.000      8.12885e+00
300.000      8.76570e+00
301.000      9.24376e+00
302.000      9.55687e+00
303.000      9.71995e+00
304.000      9.76332e+00
305.000      9.72502e+00
306.000      9.64386e+00
307.000      9.55471e+00
308.000      9.48637e+00
309.000      9.46097e+00
310.000      9.49385e+00
311.000      9.59341e+00
312.000      9.76111e+00
313.000      9.99238e+00
314.000      1.02789e+01
315.000      1.06118e+01
316.000      1.09853e+01
317.000      1.13982e+01
318.000      1.18550e+01
319.000      1.23642e+01
320.000      1.29372e+01
321.000      1.35877e+01
322.000      1.43316e+01
323.000      1.51876e+01
324.000      1.61753e+01
325.000      1.73112e+01
326.000      1.86015e+01
327.000      2.00350e+01
328.000      2.15772e+01
329.000      2.31709e+01
330.000      2.47414e+01
331.000      2.62088e+01
332.000      2.75004e+01
333.000      2.85632e+01
334.000      2.93703e+01
335.000      2.99220e+01
336.000      3.02416e+01
337.000      3.03681e+01
338.000      3.03474e+01
339.000      3.02264e+01
340.000      3.00476e+01
341.000      2.98471e+01
342.000      2.96519e+01
343.000      2.94794e+01
344.000      2.93351e+01
345.000      2.92133e+01
346.000      2.90974e+01
347.000      2.89632e+01
348.000      2.87843e+01
349.000      2.85357e+01
350.000      2.81978e+01
351.000      2.77558e+01
352.000      2.71982e+01
353.000      2.65133e+01
354.000      2.56871e+01
355.000      2.47041e+01
356.000      2.35510e+01
357.000      2.22233e+01
358.000      2.07320e+01
359.000      1.91071e+01
360.000      1.73983e+01
361.000      1.56700e+01
362.000      1.39925e+01
363.000      1.24314e+01
364.000      1.10372e+01
365.000      9.83906e+00
366.000      8.84207e+00
367.000      8.03037e+00
368.000      7.37389e+00
369.000      6.83719e+00
370.000      6.38815e+00
371.000      6.00457e+00
372.000      5.67731e+00
373.000      5.40998e+00
374.000      5.21564e+00
375.000      5.11215e+00
376.000      5.11761e+00
377.000      5.24698e+00
378.000      5.51029e+00
379.000      5.91207e+00
380.000      6.45146e+00
381.000      7.12252e+00
382.000      7.91461e+00
383.000      8.81283e+00
384.000      9.79840e+00
385.000      1.08488e+01
386.000      1.19372e+01
387.000      1.30306e+01
388.000      1.40872e+01
389.000      1.50546e+01
390.000      1.58688e+01
391.000      1.64581e+01
392.000      1.67509e+01
393.000      1.66868e+01
394.000      1.62301e+01
395.000      1.53810e+01
396.000      1.41815e+01
397.000      1.27138e+01
398.000      1.10902e+01
399.000      9.43571e+00
400.000      7.86835e+00
401.000      6.47979e+00
402.000      5.32293e+00
403.000      4.40868e+00
404.000      3.71240e+00
405.000      3.18776e+00
406.000      2.78304e+00
407.000      2.45507e+00
408.000      2.17692e+00
409.000      1.93815e+00
410.000      1.73943e+00
411.000      1.58463e+00
412.000      1.47421e+00
413.000      1.40225e+00
414.000      1.35769e+00
415.000      1.32826e+00
416.000      1.30471e+00
417.000      1.28306e+00
418.000      1.26401e+00
419.000      1.24978e+00
420.000      1.24035e+00
421.000      1.23107e+00
422.000      1.21272e+00
423.000      1.17424e+00
424.000      1.10670e+00
425.000      1.00683e+00
426.000      8.78481e-01
427.000      7.31733e-01
428.000      5.80019e-01
429.000      4.36606e-01
430.000      3.11674e-01
431.000      2.10810e-01
432.000      1.35027e-01
433.000      8.18710e-02
434.000      4.69814e-02
435.000      2.55120e-02
436.000      1.31083e-02
437.000      6.37246e-03
438.000      2.93098e-03
439.000      1.27542e-03
440.000      5.25072e-04
441.000      2.04508e-04
442.000      7.53571e-05
443.000      2.62698e-05
444.000      8.66383e-06
445.000      2.70322e-06
446.000      7.97941e-07
447.000      2.22832e-07
448.000      5.88713e-08
449.000      1.47145e-08
450.000      3.47943e-09
451.000      7.78370e-10
452.000      1.64734e-10
453.000      3.29835e-11
454.000      6.24781e-12
455.000      1.11964e-12
456.000      1.89821e-13
457.000      3.04458e-14
458.000      4.61986e-15
459.000      6.63206e-16
460.000      9.00711e-17
461.000      1.15728e-17
462.000      1.40674e-18
463.000      1.61772e-19
464.000      1.75999e-20
465.000      1.81148e-21
466.000      1.76391e-22
467.000      1.62494e-23
468.000      1.41617e-24
469.000      1.16764e-25
470.000      9.10802e-27
471.000      6.72132e-28
472.000      4.69248e-29
473.000      3.09933e-30
474.000      1.93665e-31
475.000      1.14486e-32
476.000      6.40282e-34
477.000      3.38772e-35
478.000      1.69575e-36
479.000      8.03032e-38
480.000      3.59768e-39
481.000      1.52486e-40
482.000      6.11439e-42
483.000      2.31950e-43
484.000      8.32442e-45
485.000      2.82638e-46
486.000      9.07874e-48
487.000      2.75891e-49
488.000      7.93173e-51
489.000      2.15732e-52
490.000      5.55112e-54
491.000      1.35133e-55
492.000      3.11217e-57
493.000      6.78080e-59
494.000      1.39771e-60
495.000      2.72565e-62
496.000      5.02852e-64
497.000      8.77664e-66
498.000      1.44922e-67
499.000      2.26390e-69
500.000      3.34579e-71
