# Gaussian folded, width=10 cm^-1
# [cm^-1] arbitrary
0.000      3.00000e+00
1.000      2.91796e+00
2.000      2.68508e+00
3.000      2.33749e+00
4.000      1.92514e+00
5.000      1.50000e+00
6.000      1.10570e+00
7.000      7.71085e-01
8.000      5.08727e-01
9.000      3.17531e-01
10.000      1.87506e-01
11.000      1.04766e-01
12.000      5.54217e-02
13.000      2.78658e-02
14.000      1.36179e-02
15.000      7.25843e-03
16.000      6.01235e-03
17.000      9.43438e-03
18.000      1.94779e-02
19.000      4.10654e-02
20.000      8.30964e-02
21.000      1.59594e-01
22.000      2.90385e-01
23.000      5.00424e-01
24.000      8.16789e-01
25.000      1.26272e+00
26.000      1.84908e+00
27.000      2.56496e+00
28.000      3.37059e+00
29.000      4.19623e+00
30.000      4.94955e+00
31.000      5.53165e+00
32.000      5.85806e+00
33.000      5.87888e+00
34.000      5.59141e+00
35.000      5.04086e+00
36.000      4.30928e+00
37.000      3.49650e+00
38.000      2.69972e+00
39.000      1.99802e+00
40.000      1.44521e+00
41.000      1.07124e+00
42.000      8.88977e-01
43.000      9.02081e-01
44.000      1.10986e+00
45.000      1.50693e+00
46.000      2.07782e+00
47.000      2.78929e+00
48.000      3.58432e+00
49.000      4.38199e+00
50.000      5.08585e+00
51.000      5.59986e+00
52.000      5.84830e+00
53.000      5.79310e+00
54.000      5.44311e+00
55.000      4.85169e+00
56.000      4.10373e+00
57.000      3.29642e+00
58.000      2.52025e+00
59.000      1.84551e+00
60.000      1.31720e+00
61.000      9.57830e-01
62.000      7.74994e-01
63.000      7.69656e-01
64.000      9.41553e-01
65.000      1.28964e+00
66.000      1.80766e+00
67.000      2.47706e+00
68.000      3.26070e+00
69.000      4.10153e+00
70.000      4.92869e+00
71.000      5.67133e+00
72.000      6.27670e+00
73.000      6.72677e+00
74.000      7.04686e+00
75.000      7.30222e+00
76.000      7.58248e+00
77.000      7.97892e+00
78.000      8.56166e+00
79.000      9.36432e+00
80.000      1.03795e+01
81.000      1.15647e+01
82.000      1.28535e+01
83.000      1.41673e+01
84.000      1.54228e+01
85.000      1.65362e+01
86.000      1.74259e+01
87.000      1.80169e+01
88.000      1.82504e+01
89.000      1.80947e+01
90.000      1.75555e+01
91.000      1.66796e+01
92.000      1.55505e+01
93.000      1.42757e+01
94.000      1.29712e+01
95.000      1.17471e+01
96.000      1.06986e+01
97.000      9.90211e+00
98.000      9.41471e+00
99.000      9.27320e+00
100.000      9.49114e+00
101.000      1.00550e+01
102.000      1.09222e+01
103.000      1.20247e+01
104.000      1.32774e+01
105.000      1.45905e+01
106.000      1.58806e+01
107.000      1.70772e+01
108.000      1.81240e+01
109.000      1.89772e+01
110.000      1.96041e+01
111.000      1.99850e+01
112.000      2.01188e+01
113.000      2.00284e+01
114.000      1.97623e+01
115.000      1.93886e+01
116.000      1.89812e+01
117.000      1.86013e+01
118.000      1.82805e+01
119.000      1.80120e+01
120.000      1.77541e+01
121.000      1.74464e+01
122.000      1.70319e+01
123.000      1.64792e+01
124.000      1.57948e+01
125.000      1.50228e+01
126.000      1.42312e+01
127.000      1.34906e+01
128.000      1.28517e+01
129.000      1.23308e+01
130.000      1.19058e+01
131.000      1.15246e+01
132.000      1.11215e+01
133.000      1.06371e+01
134.000      1.00338e+01
135.000      9.30513e+00
136.000      8.47515e+00
137.000      7.59100e+00
138.000      6.71079e+00
139.000      5.89068e+00
140.000      5.17405e+00
141.000      4.58459e+00
142.000      4.12428e+00
143.000      3.77593e+00
144.000      3.50924e+00
145.000      3.28868e+00
146.000      3.08112e+00
147.000      2.86151e+00
148.000      2.61570e+00
149.000      2.34054e+00
150.000      2.04204e+00
151.000      1.73276e+00
152.000      1.42914e+00
153.000      1.14941e+00
154.000      9.12012e-01
155.000      7.34663e-01
156.000      6.33925e-01
157.000      6.25080e-01
158.000      7.21994e-01
159.000      9.36613e-01
160.000      1.27783e+00
161.000      1.74967e+00
162.000      2.34906e+00
163.000      3.06349e+00
164.000      3.86914e+00
165.000      4.73028e+00
166.000      5.60121e+00
167.000      6.43191e+00
168.000      7.17814e+00
169.000      7.81468e+00
170.000      8.34802e+00
171.000      8.82299e+00
172.000      9.31801e+00
173.000      9.92715e+00
174.000      1.07323e+01
175.000      1.17737e+01
176.000      1.30302e+01
177.000      1.44156e+01
178.000      1.57963e+01
179.000      1.70222e+01
180.000      1.79646e+01
181.000      1.85459e+01
182.000      1.87574e+01
183.000      1.86568e+01
184.000      1.83505e+01
185.000      1.79640e+01
186.000      1.76089e+01
187.000      1.73544e+01
188.000      1.72126e+01
189.000      1.71425e+01
190.000      1.70744e+01
191.000      1.69465e+01
192.000      1.67450e+01
193.000      1.65300e+01
194.000      1.64376e+01
195.000      1.66521e+01
196.000      1.73569e+01
197.000      1.86767e+01
198.000      2.06296e+01
199.000      2.31058e+01
200.000      2.58789e+01
201.000      2.86493e+01
202.000      3.11058e+01
203.000      3.29902e+01
204.000      3.41472e+01
205.000      3.45461e+01
206.000      3.42708e+01
207.000      3.34820e+01
208.000      3.23640e+01
209.000      3.10727e+01
210.000      2.97018e+01
211.000      2.82751e+01
212.000      2.67678e+01
213.000      2.51427e+01
214.000      2.33875e+01
215.000      2.15338e+01
216.000      1.96526e+01
217.000      1.78288e+01
218.000      1.61293e+01
219.000      1.45813e+01
220.000      1.31698e+01
221.000      1.18572e+01
222.000      1.06131e+01
223.000      9.44340e+00
224.000      8.40507e+00
225.000      7.60195e+00
226.000      7.16430e+00
227.000      7.21829e+00
228.000      7.85436e+00
229.000      9.10179e+00
230.000      1.09143e+01
231.000      1.31693e+01
232.000      1.56818e+01
233.000      1.82307e+01
234.000      2.05952e+01
235.000      2.25937e+01
236.000      2.41175e+01
237.000      2.51501e+01
238.000      2.57666e+01
239.000      2.61103e+01
240.000      2.63550e+01
241.000      2.66607e+01
242.000      2.71384e+01
243.000      2.78317e+01
244.000      2.87194e+01
245.000      2.97328e+01
246.000      3.07787e+01
247.000      3.17562e+01
248.000      3.25630e+01
249.000      3.30939e+01
250.000      3.32390e+01
251.000      3.28911e+01
252.000      3.19627e+01
253.000      3.04114e+01
254.000      2.82595e+01
255.000      2.56019e+01
256.000      2.25940e+01
257.000      1.94254e+01
258.000      1.62878e+01
259.000      1.33467e+01
260.000      1.07256e+01
261.000      8.50224e+00
262.000      6.71394e+00
263.000      5.36696e+00
264.000      4.44523e+00
265.000      3.91735e+00
266.000      3.74220e+00
267.000      3.87449e+00
268.000      4.27069e+00
269.000      4.89420e+00
270.000      5.71819e+00
271.000      6.72459e+00
272.000      7.89877e+00
273.000      9.22110e+00
274.000      1.06573e+01
275.000      1.21502e+01
276.000      1.36158e+01
277.000      1.49456e+01
278.000      1.60169e+01
279.000      1.67107e+01
280.000      1.69330e+01
281.000      1.66361e+01
282.000      1.58313e+01
283.000      1.45903e+01
284.000      1.30331e+01
285.000      1.13053e+01
286.000      9.55216e+00
287.000      7.89628e+00
288.000      6.42331e+00
289.000      5.17902e+00
290.000      4.17492e+00
291.000      3.39934e+00
292.000      2.82909e+00
293.000      2.43867e+00
294.000      2.20480e+00
295.000      2.10662e+00
296.000      2.12292e+00
297.000      2.22863e+00
298.000      2.39275e+00
299.000      2.57922e+00
300.000      2.75088e+00
301.000      2.87562e+00
302.000      2.93291e+00
303.000      2.91848e+00
304.000      2.84536e+00
305.000      2.74065e+00
306.000      2.63842e+00
307.000      2.57082e+00
308.000      2.55984e+00
309.000      2.61229e+00
310.000      2.71899e+00
311.000      2.85801e+00
312.000      3.00052e+00
313.000      3.11706e+00
314.000      3.18268e+00
315.000      3.18017e+00
316.000      3.10151e+00
317.000      2.94821e+00
318.000      2.73084e+00
319.000      2.46806e+00
320.000      2.18448e+00
321.000      1.90731e+00
322.000      1.66178e+00
323.000      1.46628e+00
324.000      1.32843e+00
325.000      1.24357e+00
326.000      1.19633e+00
327.000      1.16490e+00
328.000      1.12709e+00
329.000      1.06594e+00
330.000      9.73487e-01
331.000      8.51626e-01
332.000      7.10062e-01
333.000      5.62534e-01
334.000      4.22693e-01
335.000      3.00930e-01
336.000      2.02862e-01
337.000      1.29441e-01
338.000      7.81617e-02
339.000      4.46589e-02
340.000      2.41426e-02
341.000      1.23482e-02
342.000      5.97528e-03
343.000      2.73551e-03
344.000      1.18479e-03
345.000      4.85472e-04
346.000      1.88195e-04
347.000      6.90192e-05
348.000      2.39469e-05
349.000      7.86046e-06
350.000      2.44098e-06
351.000      7.17130e-07
352.000      1.99319e-07
353.000      5.24105e-08
354.000      1.30378e-08
355.000      3.06838e-09
356.000      6.83174e-10
357.000      1.43903e-10
358.000      2.86766e-11
359.000      5.40633e-12
360.000      9.64262e-13
361.000      1.62706e-13
362.000      2.59736e-14
363.000      3.92263e-15
364.000      5.60454e-16
365.000      7.57566e-17
366.000      9.68765e-18
367.000      1.17202e-18
368.000      1.34143e-19
369.000      1.45251e-20
370.000      1.48794e-21
371.000      1.44202e-22
372.000      1.32213e-23
373.000      1.14682e-24
374.000      9.41099e-26
375.000      7.30621e-27
376.000      5.36619e-28
377.000      3.72870e-29
378.000      2.45113e-30
379.000      1.52438e-31
380.000      8.96887e-33
381.000      4.99229e-34
382.000      2.62893e-35
383.000      1.30971e-36
384.000      6.17292e-38
385.000      2.75247e-39
386.000      1.16111e-40
387.000      4.63384e-42
388.000      1.74955e-43
389.000      6.24926e-45
390.000      2.11178e-46
391.000      6.75129e-48
392.000      2.04194e-49
393.000      5.84273e-51
394.000      1.58164e-52
395.000      4.05056e-54
396.000      9.81388e-56
397.000      2.24949e-57
398.000      4.87804e-59
399.000      1.00075e-60
400.000      1.94232e-62
401.000      3.56643e-64
402.000      6.19535e-66
403.000      1.01816e-67
404.000      1.58300e-69
405.000      2.32845e-71
406.000      3.24017e-73
407.000      4.26567e-75
408.000      5.31282e-77
409.000      6.26007e-79
410.000      6.97833e-81
411.000      7.35939e-83
412.000      7.34259e-85
413.000      6.93066e-87
414.000      6.18895e-89
415.000      5.22851e-91
416.000      4.17884e-93
417.000      3.15974e-95
418.000      2.26029e-97
419.000      1.52966e-99
420.000     9.79362e-102
421.000     5.93211e-104
422.000     3.39933e-106
423.000     1.84287e-108
424.000     9.45176e-111
425.000     4.58616e-113
426.000     2.10525e-115
427.000     9.14270e-118
428.000     3.75633e-120
429.000     1.46006e-122
430.000     5.36902e-125
431.000     1.86783e-127
432.000     6.14747e-130
433.000     1.91414e-132
434.000     5.63856e-135
435.000     1.57138e-137
436.000     4.14296e-140
437.000     1.03338e-142
438.000     2.43850e-145
439.000     5.44385e-148
440.000     1.14976e-150
441.000     2.29734e-153
442.000     4.34270e-156
443.000     7.76628e-159
444.000     1.31397e-161
445.000     2.10316e-164
446.000     3.18477e-167
447.000     4.56249e-170
448.000     6.18362e-173
449.000     7.92869e-176
450.000     9.61785e-179
451.000     1.10375e-181
452.000     1.19835e-184
453.000     1.23087e-187
454.000     1.19608e-190
455.000     1.09957e-193
456.000     9.56326e-197
457.000     7.86874e-200
458.000     6.12523e-203
459.000     4.51084e-206
460.000     3.14275e-209
461.000     2.07147e-212
462.000     1.29172e-215
463.000     7.62030e-219
464.000     4.25300e-222
465.000     2.24562e-225
466.000     1.12174e-228
467.000     5.30114e-232
468.000     2.37008e-235
469.000     1.00247e-238
470.000     4.01145e-242
471.000     1.51861e-245
472.000     5.43890e-249
473.000     1.84286e-252
474.000     5.90732e-256
475.000     1.79146e-259
476.000     5.13974e-263
477.000     1.39506e-266
478.000     3.58230e-270
479.000     8.70259e-274
480.000     2.00011e-277
481.000     4.34886e-281
482.000     8.94570e-285
483.000     1.74089e-288
484.000     3.20514e-292
485.000     5.58263e-296
486.000     9.19917e-300
487.000     1.43409e-303
488.000     2.11505e-307
489.000     2.95110e-311
490.000     3.89551e-315
491.000     4.86477e-319
492.000     5.92879e-323
493.000      0.00000e+00
494.000      0.00000e+00
495.000      0.00000e+00
496.000      0.00000e+00
497.000      0.00000e+00
498.000      0.00000e+00
499.000      0.00000e+00
500.000      0.00000e+00
