# Gaussian folded, width=10 cm^-1
# [cm^-1] arbitrary
0.000      3.00000e+00
1.000      2.91796e+00
2.000      2.68508e+00
3.000      2.33749e+00
4.000      1.92514e+00
5.000      1.50000e+00
6.000      1.10570e+00
7.000      7.71085e-01
8.000      5.08727e-01
9.000      3.17529e-01
10.000      1.87500e-01
11.000      1.04746e-01
12.000      5.53590e-02
13.000      2.76795e-02
14.000      1.30933e-02
15.000      5.85974e-03
16.000      2.48206e-03
17.000      9.98359e-04
18.000      3.92281e-04
19.000      1.84568e-04
20.000      1.93484e-04
21.000      4.31442e-04
22.000      1.11851e-03
23.000      2.82297e-03
24.000      6.77262e-03
25.000      1.54035e-02
26.000      3.32043e-02
27.000      6.78436e-02
28.000      1.31402e-01
29.000      2.41275e-01
30.000      4.20032e-01
31.000      6.93353e-01
32.000      1.08534e+00
33.000      1.61124e+00
34.000      2.26868e+00
35.000      3.02996e+00
36.000      3.83872e+00
37.000      4.61371e+00
38.000      5.26083e+00
39.000      5.69142e+00
40.000      5.84205e+00
41.000      5.68986e+00
42.000      5.25818e+00
43.000      4.61074e+00
44.000      3.83621e+00
45.000      3.02847e+00
46.000      2.26841e+00
47.000      1.61206e+00
48.000      1.08691e+00
49.000      6.95347e-01
50.000      4.22351e-01
51.000      2.44304e-01
52.000      1.36428e-01
53.000      7.78254e-02
54.000      5.41597e-02
55.000      5.87216e-02
56.000      9.26775e-02
57.000      1.64964e-01
58.000      2.91757e-01
59.000      4.94940e-01
60.000      7.98803e-01
61.000      1.22441e+00
62.000      1.78190e+00
63.000      2.46214e+00
64.000      3.23031e+00
65.000      4.02445e+00
66.000      4.76129e+00
67.000      5.34954e+00
68.000      5.70811e+00
69.000      5.78438e+00
70.000      5.56685e+00
71.000      5.08806e+00
72.000      4.41680e+00
73.000      3.64228e+00
74.000      2.85545e+00
75.000      2.13315e+00
76.000      1.52885e+00
77.000      1.07139e+00
78.000      7.69896e-01
79.000      6.21788e-01
80.000      6.20351e-01
81.000      7.59304e-01
82.000      1.03326e+00
83.000      1.43458e+00
84.000      1.94840e+00
85.000      2.54799e+00
86.000      3.19274e+00
87.000      3.83006e+00
88.000      4.40116e+00
89.000      4.84956e+00
90.000      5.13034e+00
91.000      5.21814e+00
92.000      5.11238e+00
93.000      4.83900e+00
94.000      4.44876e+00
95.000      4.01227e+00
96.000      3.61229e+00
97.000      3.33385e+00
98.000      3.25305e+00
99.000      3.42590e+00
100.000      3.87899e+00
101.000      4.60415e+00
102.000      5.55889e+00
103.000      6.67344e+00
104.000      7.86356e+00
105.000      9.04621e+00
106.000      1.01538e+01
107.000      1.11431e+01
108.000      1.19955e+01
109.000      1.27101e+01
110.000      1.32907e+01
111.000      1.37341e+01
112.000      1.40228e+01
113.000      1.41253e+01
114.000      1.40046e+01
115.000      1.36307e+01
116.000      1.29942e+01
117.000      1.21147e+01
118.000      1.10431e+01
119.000      9.85621e+00
120.000      8.64563e+00
121.000      7.50493e+00
122.000      6.51800e+00
123.000      5.75136e+00
124.000      5.25084e+00
125.000      5.04178e+00
126.000      5.13067e+00
127.000      5.50680e+00
128.000      6.14325e+00
129.000      6.99818e+00
130.000      8.01748e+00
131.000      9.13990e+00
132.000      1.03036e+01
133.000      1.14523e+01
134.000      1.25382e+01
135.000      1.35218e+01
136.000      1.43677e+01
137.000      1.50421e+01
138.000      1.55129e+01
139.000      1.57544e+01
140.000      1.57563e+01
141.000      1.55304e+01
142.000      1.51131e+01
143.000      1.45613e+01
144.000      1.39416e+01
145.000      1.33174e+01
146.000      1.27380e+01
147.000      1.22324e+01
148.000      1.18096e+01
149.000      1.14634e+01
150.000      1.11804e+01
151.000      1.09458e+01
152.000      1.07491e+01
153.000      1.05840e+01
154.000      1.04481e+01
155.000      1.03410e+01
156.000      1.02625e+01
157.000      1.02127e+01
158.000      1.01917e+01
159.000      1.01988e+01
160.000      1.02297e+01
161.000      1.02721e+01
162.000      1.03030e+01
163.000      1.02874e+01
164.000      1.01824e+01
165.000      9.94452e+00
166.000      9.53969e+00
167.000      8.95208e+00
168.000      8.18989e+00
169.000      7.28629e+00
170.000      6.29535e+00
171.000      5.28430e+00
172.000      4.32401e+00
173.000      3.47960e+00
174.000      2.80302e+00
175.000      2.32858e+00
176.000      2.07182e+00
177.000      2.03130e+00
178.000      2.19251e+00
179.000      2.53242e+00
180.000      3.02350e+00
181.000      3.63609e+00
182.000      4.33857e+00
183.000      5.09573e+00
184.000      5.86632e+00
185.000      6.60161e+00
186.000      7.24670e+00
187.000      7.74559e+00
188.000      8.04983e+00
189.000      8.12877e+00
190.000      7.97805e+00
191.000      7.62304e+00
192.000      7.11502e+00
193.000      6.52050e+00
194.000      5.90642e+00
195.000      5.32606e+00
196.000      4.81006e+00
197.000      4.36523e+00
198.000      3.98093e+00
199.000      3.63978e+00
200.000      3.32847e+00
201.000      3.04437e+00
202.000      2.79577e+00
203.000      2.59627e+00
204.000      2.45613e+00
205.000      2.37443e+00
206.000      2.33548e+00
207.000      2.31109e+00
208.000      2.26793e+00
209.000      2.17701e+00
210.000      2.02190e+00
211.000      1.80279e+00
212.000      1.53515e+00
213.000      1.24434e+00
214.000      9.58088e-01
215.000      6.99831e-01
216.000      4.84577e-01
217.000      3.17910e-01
218.000      1.97556e-01
219.000      1.16262e-01
220.000      6.47888e-02
221.000      3.41855e-02
222.000      1.70781e-02
223.000      8.07753e-03
224.000      3.61697e-03
225.000      1.53331e-03
226.000      6.15349e-04
227.000      2.33783e-04
228.000      8.40806e-05
229.000      2.86261e-05
230.000      9.22581e-06
231.000      2.81458e-06
232.000      8.12800e-07
233.000      2.22180e-07
234.000      5.74872e-08
235.000      1.40791e-08
236.000      3.26366e-09
237.000      7.16074e-10
238.000      1.48705e-10
239.000      2.92279e-11
240.000      5.43714e-12
241.000      9.57270e-13
242.000      1.59509e-13
243.000      2.51579e-14
244.000      3.78428e-15
245.000      7.63068e-16
246.000      1.77250e-15
247.000      1.17749e-14
248.000      7.69702e-14
249.000      4.76358e-13
250.000      2.78918e-12
251.000      1.54507e-11
252.000      8.09741e-11
253.000      4.01488e-10
254.000      1.88333e-09
255.000      8.35810e-09
256.000      3.50928e-08
257.000      1.39398e-07
258.000      5.23873e-07
259.000      1.86263e-06
260.000      6.26558e-06
261.000      1.99403e-05
262.000      6.00405e-05
263.000      1.71042e-04
264.000      4.61019e-04
265.000      1.17573e-03
266.000      2.83716e-03
267.000      6.47863e-03
268.000      1.40007e-02
269.000      2.86383e-02
270.000      5.54594e-02
271.000      1.01714e-01
272.000      1.76755e-01
273.000      2.91249e-01
274.000      4.55533e-01
275.000      6.77327e-01
276.000      9.59504e-01
277.000      1.29892e+00
278.000      1.68727e+00
279.000      2.11407e+00
280.000      2.57091e+00
281.000      3.05461e+00
282.000      3.56698e+00
283.000      4.10997e+00
284.000      4.67723e+00
285.000      5.24601e+00
286.000      5.77417e+00
287.000      6.20630e+00
288.000      6.48895e+00
289.000      6.59097e+00
290.000      6.52179e+00
291.000      6.33988e+00
292.000      6.14740e+00
293.000      6.07114e+00
294.000      6.23522e+00
295.000      6.73299e+00
296.000      7.60574e+00
297.000      8.83261e+00
298.000      1.03330e+01
299.000      1.19788e+01
300.000      1.36136e+01
301.000      1.50739e+01
302.000      1.62097e+01
303.000      1.69036e+01
304.000      1.70867e+01
305.000      1.67507e+01
306.000      1.59536e+01
307.000      1.48177e+01
308.000      1.35157e+01
309.000      1.22461e+01
310.000      1.12013e+01
311.000      1.05313e+01
312.000      1.03151e+01
313.000      1.05434e+01
314.000      1.11211e+01
315.000      1.18880e+01
316.000      1.26561e+01
317.000      1.32537e+01
318.000      1.35682e+01
319.000      1.35759e+01
320.000      1.33539e+01
321.000      1.30700e+01
322.000      1.29534e+01
323.000      1.32514e+01
324.000      1.41824e+01
325.000      1.58927e+01
326.000      1.84254e+01
327.000      2.17056e+01
328.000      2.55469e+01
329.000      2.96743e+01
330.000      3.37628e+01
331.000      3.74841e+01
332.000      4.05509e+01
333.000      4.27536e+01
334.000      4.39792e+01
335.000      4.42147e+01
336.000      4.35346e+01
337.000      4.20815e+01
338.000      4.00426e+01
339.000      3.76289e+01
340.000      3.50560e+01
341.000      3.25282e+01
342.000      3.02237e+01
343.000      2.82845e+01
344.000      2.68100e+01
345.000      2.58575e+01
346.000      2.54459e+01
347.000      2.55608e+01
348.000      2.61570e+01
349.000      2.71580e+01
350.000      2.84541e+01
351.000      2.99030e+01
352.000      3.13364e+01
353.000      3.25754e+01
354.000      3.34509e+01
355.000      3.38258e+01
356.000      3.36136e+01
357.000      3.27878e+01
358.000      3.13819e+01
359.000      2.94801e+01
360.000      2.72017e+01
361.000      2.46824e+01
362.000      2.20572e+01
363.000      1.94465e+01
364.000      1.69476e+01
365.000      1.46320e+01
366.000      1.25464e+01
367.000      1.07166e+01
368.000      9.15181e+00
369.000      7.84963e+00
370.000      6.79926e+00
371.000      5.98507e+00
372.000      5.38953e+00
373.000      4.99563e+00
374.000      4.78849e+00
375.000      4.75595e+00
376.000      4.88876e+00
377.000      5.18096e+00
378.000      5.63122e+00
379.000      6.24480e+00
380.000      7.03413e+00
381.000      8.01583e+00
382.000      9.20241e+00
383.000      1.05900e+01
384.000      1.21460e+01
385.000      1.38041e+01
386.000      1.54696e+01
387.000      1.70376e+01
388.000      1.84176e+01
389.000      1.95538e+01
390.000      2.04346e+01
391.000      2.10840e+01
392.000      2.15405e+01
393.000      2.18325e+01
394.000      2.19600e+01
395.000      2.18903e+01
396.000      2.15684e+01
397.000      2.09366e+01
398.000      1.99554e+01
399.000      1.86193e+01
400.000      1.69641e+01
401.000      1.50645e+01
402.000      1.30251e+01
403.000      1.09664e+01
404.000      9.00901e+00
405.000      7.25798e+00
406.000      5.79019e+00
407.000      4.64629e+00
408.000      3.82901e+00
409.000      3.30777e+00
410.000      3.02849e+00
411.000      2.92594e+00
412.000      2.93573e+00
413.000      3.00308e+00
414.000      3.08714e+00
415.000      3.16084e+00
416.000      3.20774e+00
417.000      3.21800e+00
418.000      3.18509e+00
419.000      3.10424e+00
420.000      2.97251e+00
421.000      2.78979e+00
422.000      2.55988e+00
423.000      2.29118e+00
424.000      1.99659e+00
425.000      1.69279e+00
426.000      1.39883e+00
427.000      1.13417e+00
428.000      9.16446e-01
429.000      7.59055e-01
430.000      6.69072e-01
431.000      6.45726e-01
432.000      6.79853e-01
433.000      7.54607e-01
434.000      8.47621e-01
435.000      9.34493e-01
436.000      9.93073e-01
437.000      1.00758e+00
438.000      9.71419e-01
439.000      8.87913e-01
440.000      7.68581e-01
441.000      6.29704e-01
442.000      4.88203e-01
443.000      3.58121e-01
444.000      2.48542e-01
445.000      1.63192e-01
446.000      1.01373e-01
447.000      5.95748e-02
448.000      3.31225e-02
449.000      1.74222e-02
450.000      8.66959e-03
451.000      4.08144e-03
452.000      1.81780e-03
453.000      7.65940e-04
454.000      3.05325e-04
455.000      1.15146e-04
456.000      4.10818e-05
457.000      1.38666e-05
458.000      4.42800e-06
459.000      1.33771e-06
460.000      3.82328e-07
461.000      1.03378e-07
462.000      2.64445e-08
463.000      6.39971e-09
464.000      1.46522e-09
465.000      3.17369e-10
466.000      6.50344e-11
467.000      1.26078e-11
468.000      2.31235e-12
469.000      4.01222e-13
470.000      6.58618e-14
471.000      1.02282e-14
472.000      1.50274e-15
473.000      2.08875e-16
474.000      2.74666e-17
475.000      3.41698e-18
476.000      4.02158e-19
477.000      4.47784e-20
478.000      4.71692e-21
479.000      4.70074e-22
480.000      4.43191e-23
481.000      3.95306e-24
482.000      3.33575e-25
483.000      2.66300e-26
484.000      2.01125e-27
485.000      1.43708e-28
486.000      9.71427e-30
487.000      6.21239e-31
488.000      3.75858e-32
489.000      2.15133e-33
490.000      1.16495e-34
491.000      5.96798e-36
492.000      2.89243e-37
493.000      1.32622e-38
494.000      5.75292e-40
495.000      2.36090e-41
496.000      9.16609e-43
497.000      3.36673e-44
498.000      1.16990e-45
499.000      3.84600e-47
500.000      1.19615e-48
