# Gaussian folded, width=10 cm^-1
# [cm^-1] arbitrary
0.000      3.00000e+00
1.000      2.91796e+00
2.000      2.68508e+00
3.000      2.33749e+00
4.000      1.92514e+00
5.000      1.50000e+00
6.000      1.10570e+00
7.000      7.71085e-01
8.000      5.08727e-01
9.000      3.17531e-01
10.000      1.87505e-01
11.000      1.04764e-01
12.000      5.54165e-02
13.000      2.78515e-02
14.000      1.35810e-02
15.000      7.16871e-03
16.000      5.80802e-03
17.000      8.99828e-03
18.000      1.86072e-02
19.000      3.94432e-02
20.000      8.02853e-02
21.000      1.55084e-01
22.000      2.83731e-01
23.000      4.91495e-01
24.000      8.06098e-01
25.000      1.25174e+00
26.000      1.84035e+00
27.000      2.56186e+00
28.000      3.37664e+00
29.000      4.21397e+00
30.000      4.97945e+00
31.000      5.57135e+00
32.000      5.90247e+00
33.000      5.92122e+00
34.000      5.62486e+00
35.000      5.06040e+00
36.000      4.31287e+00
37.000      3.48532e+00
38.000      2.67745e+00
39.000      1.96949e+00
40.000      1.41500e+00
41.000      1.04266e+00
42.000      8.63711e-01
43.000      8.80411e-01
44.000      1.09129e+00
45.000      1.49086e+00
46.000      2.06416e+00
47.000      2.77865e+00
48.000      3.57783e+00
49.000      4.38092e+00
50.000      5.09093e+00
51.000      5.61085e+00
52.000      5.86372e+00
53.000      5.81052e+00
54.000      5.45971e+00
55.000      4.86496e+00
56.000      4.11205e+00
57.000      3.29930e+00
58.000      2.51819e+00
59.000      1.83954e+00
60.000      1.30845e+00
61.000      9.47154e-01
62.000      7.63007e-01
63.000      7.57068e-01
64.000      9.29758e-01
65.000      1.28131e+00
66.000      1.80702e+00
67.000      2.48950e+00
68.000      3.29162e+00
69.000      4.15450e+00
70.000      5.00369e+00
71.000      5.76370e+00
72.000      6.37771e+00
73.000      6.82587e+00
74.000      7.13509e+00
75.000      7.37538e+00
76.000      7.64271e+00
77.000      8.03351e+00
78.000      8.61931e+00
79.000      9.42984e+00
80.000      1.04490e+01
81.000      1.16232e+01
82.000      1.28768e+01
83.000      1.41278e+01
84.000      1.52987e+01
85.000      1.63210e+01
86.000      1.71347e+01
87.000      1.76880e+01
88.000      1.79386e+01
89.000      1.78596e+01
90.000      1.74463e+01
91.000      1.67222e+01
92.000      1.57400e+01
93.000      1.45765e+01
94.000      1.33246e+01
95.000      1.20836e+01
96.000      1.09520e+01
97.000      1.00218e+01
98.000      9.37446e+00
99.000      9.07444e+00
100.000      9.16078e+00
101.000      9.63867e+00
102.000      1.04746e+01
103.000      1.15986e+01
104.000      1.29155e+01
105.000      1.43198e+01
106.000      1.57126e+01
107.000      1.70119e+01
108.000      1.81567e+01
109.000      1.91037e+01
110.000      1.98224e+01
111.000      2.02912e+01
112.000      2.04992e+01
113.000      2.04508e+01
114.000      2.01720e+01
115.000      1.97133e+01
116.000      1.91448e+01
117.000      1.85447e+01
118.000      1.79821e+01
119.000      1.75009e+01
120.000      1.71103e+01
121.000      1.67856e+01
122.000      1.64797e+01
123.000      1.61411e+01
124.000      1.57312e+01
125.000      1.52361e+01
126.000      1.46675e+01
127.000      1.40546e+01
128.000      1.34300e+01
129.000      1.28167e+01
130.000      1.22200e+01
131.000      1.16275e+01
132.000      1.10173e+01
133.000      1.03687e+01
134.000      9.67285e+00
135.000      8.93724e+00
136.000      8.18419e+00
137.000      7.44394e+00
138.000      6.74608e+00
139.000      6.11260e+00
140.000      5.55459e+00
141.000      5.07242e+00
142.000      4.65797e+00
143.000      4.29720e+00
144.000      3.97217e+00
145.000      3.66306e+00
146.000      3.35070e+00
147.000      3.02001e+00
148.000      2.66355e+00
149.000      2.28394e+00
150.000      1.89376e+00
151.000      1.51278e+00
152.000      1.16360e+00
153.000      8.67147e-01
154.000      6.39820e-01
155.000      4.92961e-01
156.000      4.34290e-01
157.000      4.70219e-01
158.000      6.07717e-01
159.000      8.54785e-01
160.000      1.21925e+00
161.000      1.70619e+00
162.000      2.31475e+00
163.000      3.03484e+00
164.000      3.84475e+00
165.000      4.71012e+00
166.000      5.58574e+00
167.000      6.42127e+00
168.000      7.17140e+00
169.000      7.80949e+00
170.000      8.34068e+00
171.000      8.80908e+00
172.000      9.29355e+00
173.000      9.89004e+00
174.000      1.06835e+01
175.000      1.17180e+01
176.000      1.29754e+01
177.000      1.43709e+01
178.000      1.57694e+01
179.000      1.70171e+01
180.000      1.79790e+01
181.000      1.85720e+01
182.000      1.87835e+01
183.000      1.86713e+01
184.000      1.83457e+01
185.000      1.79390e+01
186.000      1.75699e+01
187.000      1.73129e+01
188.000      1.71821e+01
189.000      1.71346e+01
190.000      1.70958e+01
191.000      1.69985e+01
192.000      1.68243e+01
193.000      1.66313e+01
194.000      1.65550e+01
195.000      1.67811e+01
196.000      1.74937e+01
197.000      1.88170e+01
198.000      2.07675e+01
199.000      2.32326e+01
200.000      2.59841e+01
201.000      2.87224e+01
202.000      3.11395e+01
203.000      3.29833e+01
204.000      3.41059e+01
205.000      3.44834e+01
206.000      3.42037e+01
207.000      3.34265e+01
208.000      3.23300e+01
209.000      3.10609e+01
210.000      2.97024e+01
211.000      2.82710e+01
212.000      2.67399e+01
213.000      2.50766e+01
214.000      2.32783e+01
215.000      2.13887e+01
216.000      1.94892e+01
217.000      1.76708e+01
218.000      1.60007e+01
219.000      1.45008e+01
220.000      1.31476e+01
221.000      1.18946e+01
222.000      1.07046e+01
223.000      9.58014e+00
224.000      8.57828e+00
225.000      7.80478e+00
226.000      7.39125e+00
227.000      7.46242e+00
228.000      8.10330e+00
229.000      9.33428e+00
230.000      1.10991e+01
231.000      1.32677e+01
232.000      1.56542e+01
233.000      1.80461e+01
234.000      2.02416e+01
235.000      2.20861e+01
236.000      2.35013e+01
237.000      2.44982e+01
238.000      2.51689e+01
239.000      2.56599e+01
240.000      2.61316e+01
241.000      2.67170e+01
242.000      2.74906e+01
243.000      2.84564e+01
244.000      2.95562e+01
245.000      3.06923e+01
246.000      3.17546e+01
247.000      3.26398e+01
248.000      3.32592e+01
249.000      3.35363e+01
250.000      3.34006e+01
251.000      3.27868e+01
252.000      3.16445e+01
253.000      2.99554e+01
254.000      2.77503e+01
255.000      2.51181e+01
256.000      2.21994e+01
257.000      1.91672e+01
258.000      1.61985e+01
259.000      1.34480e+01
260.000      1.10294e+01
261.000      9.00690e+00
262.000      7.39858e+00
263.000      6.18526e+00
264.000      5.32367e+00
265.000      4.76000e+00
266.000      4.44228e+00
267.000      4.33023e+00
268.000      4.40128e+00
269.000      4.65193e+00
270.000      5.09425e+00
271.000      5.74798e+00
272.000      6.62993e+00
273.000      7.74248e+00
274.000      9.06327e+00
275.000      1.05384e+01
276.000      1.20805e+01
277.000      1.35742e+01
278.000      1.48872e+01
279.000      1.58877e+01
280.000      1.64636e+01
281.000      1.65402e+01
282.000      1.60928e+01
283.000      1.51516e+01
284.000      1.37975e+01
285.000      1.21504e+01
286.000      1.03525e+01
287.000      8.54801e+00
288.000      6.86464e+00
289.000      5.39841e+00
290.000      4.20576e+00
291.000      3.30352e+00
292.000      2.67612e+00
293.000      2.28749e+00
294.000      2.09352e+00
295.000      2.05149e+00
296.000      2.12425e+00
297.000      2.27916e+00
298.000      2.48429e+00
299.000      2.70508e+00
300.000      2.90429e+00
301.000      3.04626e+00
302.000      3.10434e+00
303.000      3.06821e+00
304.000      2.94826e+00
305.000      2.77441e+00
306.000      2.58940e+00
307.000      2.43835e+00
308.000      2.35764e+00
309.000      2.36656e+00
310.000      2.46378e+00
311.000      2.62922e+00
312.000      2.83021e+00
313.000      3.02947e+00
314.000      3.19263e+00
315.000      3.29360e+00
316.000      3.31730e+00
317.000      3.26007e+00
318.000      3.12868e+00
319.000      2.93832e+00
320.000      2.70971e+00
321.000      2.46529e+00
322.000      2.22495e+00
323.000      2.00208e+00
324.000      1.80150e+00
325.000      1.61988e+00
326.000      1.44874e+00
327.000      1.27892e+00
328.000      1.10459e+00
329.000      9.25581e-01
330.000      7.47162e-01
331.000      5.77872e-01
332.000      4.26513e-01
333.000      2.99569e-01
334.000      1.99843e-01
335.000      1.26456e-01
336.000      7.58352e-02
337.000      4.30750e-02
338.000      2.31651e-02
339.000      1.17920e-02
340.000      5.68074e-03
341.000      2.58965e-03
342.000      1.11702e-03
343.000      4.55875e-04
344.000      1.76026e-04
345.000      6.43051e-05
346.000      2.22252e-05
347.000      7.26726e-06
348.000      2.24812e-06
349.000      6.57948e-07
350.000      1.82173e-07
351.000      4.77194e-08
352.000      1.18256e-08
353.000      2.77251e-09
354.000      6.14950e-10
355.000      1.29040e-10
356.000      2.56169e-11
357.000      4.81113e-12
358.000      8.54840e-13
359.000      1.43695e-13
360.000      2.28515e-14
361.000      3.43799e-15
362.000      4.89343e-16
363.000      6.58930e-17
364.000      8.39427e-18
365.000      1.01168e-18
366.000      1.15352e-19
367.000      1.24429e-20
368.000      1.26980e-21
369.000      1.22593e-22
370.000      1.11974e-23
371.000      9.67570e-25
372.000      7.90983e-26
373.000      6.11743e-27
374.000      4.47599e-28
375.000      3.09832e-29
376.000      2.02900e-30
377.000      1.25705e-31
378.000      7.36790e-33
379.000      4.08556e-34
380.000      2.14327e-35
381.000      1.06370e-36
382.000      4.99437e-38
383.000      2.21850e-39
384.000      9.32298e-41
385.000      3.70654e-42
386.000      1.39412e-43
387.000      4.96075e-45
388.000      1.66999e-46
389.000      5.31860e-48
390.000      1.60250e-49
391.000      4.56792e-51
392.000      1.23184e-52
393.000      3.14274e-54
394.000      7.58544e-56
395.000      1.73209e-57
396.000      3.74177e-59
397.000      7.64719e-61
398.000      1.47858e-62
399.000      2.70460e-64
400.000      4.68038e-66
401.000      7.66260e-68
402.000      1.18683e-69
403.000      1.73908e-71
404.000      2.41083e-73
405.000      3.16178e-75
406.000      3.92297e-77
407.000      4.60485e-79
408.000      5.11368e-81
409.000      5.37241e-83
410.000      5.33977e-85
411.000      5.02104e-87
412.000      4.46666e-89
413.000      3.75914e-91
414.000      2.99304e-93
415.000      2.25452e-95
416.000      1.60662e-97
417.000      1.08315e-99
418.000     6.90850e-102
419.000     4.16865e-104
420.000     2.37971e-106
421.000     1.28520e-108
422.000     6.56654e-111
423.000     3.17409e-113
424.000     1.45150e-115
425.000     6.27966e-118
426.000     2.57022e-120
427.000     9.95230e-123
428.000     3.64581e-125
429.000     1.26352e-127
430.000     4.14273e-130
431.000     1.28502e-132
432.000     3.77095e-135
433.000     1.04691e-137
434.000     2.74970e-140
435.000     6.83247e-143
436.000     1.60616e-145
437.000     3.57205e-148
438.000     7.51560e-151
439.000     1.49599e-153
440.000     2.81714e-156
441.000     5.01889e-159
442.000     8.45911e-162
443.000     1.34883e-164
444.000     2.03475e-167
445.000     2.90389e-170
446.000     3.92073e-173
447.000     5.00808e-176
448.000     6.05193e-179
449.000     6.91885e-182
450.000     7.48326e-185
451.000     7.65713e-188
452.000     7.41240e-191
453.000     6.78842e-194
454.000     5.88162e-197
455.000     4.82106e-200
456.000     3.73857e-203
457.000     2.74275e-206
458.000     1.90364e-209
459.000     1.24997e-212
460.000     7.76485e-216
461.000     4.56335e-219
462.000     2.53719e-222
463.000     1.33456e-225
464.000     6.64114e-229
465.000     3.12654e-232
466.000     1.39253e-235
467.000     5.86759e-239
468.000     2.33902e-242
469.000     8.82116e-246
470.000     3.14728e-249
471.000     1.06234e-252
472.000     3.39240e-256
473.000     1.02487e-259
474.000     2.92920e-263
475.000     7.92039e-267
476.000     2.02610e-270
477.000     4.90336e-274
478.000     1.12265e-277
479.000     2.43171e-281
480.000     4.98308e-285
481.000     9.66052e-289
482.000     1.77183e-292
483.000     3.07439e-296
484.000     5.04679e-300
485.000     7.83770e-304
486.000     1.15154e-307
487.000     1.60062e-311
488.000     2.10482e-315
489.000     2.61855e-319
490.000     2.96439e-323
491.000      0.00000e+00
492.000      0.00000e+00
493.000      0.00000e+00
494.000      0.00000e+00
495.000      0.00000e+00
496.000      0.00000e+00
497.000      0.00000e+00
498.000      0.00000e+00
499.000      0.00000e+00
500.000      0.00000e+00
