# Gaussian folded, width=10 cm^-1
# [cm^-1] arbitrary
0.000      3.00000e+00
1.000      2.91796e+00
2.000      2.68508e+00
3.000      2.33749e+00
4.000      1.92514e+00
5.000      1.50000e+00
6.000      1.10570e+00
7.000      7.71085e-01
8.000      5.08727e-01
9.000      3.17531e-01
10.000      1.87506e-01
11.000      1.04764e-01
12.000      5.54184e-02
13.000      2.78567e-02
14.000      1.35941e-02
15.000      7.19952e-03
16.000      5.87576e-03
17.000      9.13701e-03
18.000      1.88709e-02
19.000      3.99057e-02
20.000      8.10275e-02
21.000      1.56157e-01
22.000      2.85093e-01
23.000      4.92918e-01
24.000      8.07074e-01
25.000      1.25144e+00
26.000      1.83770e+00
27.000      2.55573e+00
28.000      3.36623e+00
29.000      4.19922e+00
30.000      4.96132e+00
31.000      5.55187e+00
32.000      5.88440e+00
33.000      5.90742e+00
34.000      5.61756e+00
35.000      5.06060e+00
36.000      4.32013e+00
37.000      3.49798e+00
38.000      2.69317e+00
39.000      1.98585e+00
40.000      1.42998e+00
41.000      1.05490e+00
42.000      8.72459e-01
43.000      8.85316e-01
44.000      1.09220e+00
45.000      1.48776e+00
46.000      2.05718e+00
47.000      2.76833e+00
48.000      3.56530e+00
49.000      4.36789e+00
50.000      5.07954e+00
51.000      5.60317e+00
52.000      5.86125e+00
53.000      5.81375e+00
54.000      5.46794e+00
55.000      4.87655e+00
56.000      4.12485e+00
57.000      3.31122e+00
58.000      2.52754e+00
59.000      1.84523e+00
60.000      1.30988e+00
61.000      9.44116e-01
62.000      7.55515e-01
63.000      7.45426e-01
64.000      9.14742e-01
65.000      1.26438e+00
66.000      1.79037e+00
67.000      2.47574e+00
68.000      3.28302e+00
69.000      4.15197e+00
70.000      5.00566e+00
71.000      5.76560e+00
72.000      6.37221e+00
73.000      6.80420e+00
74.000      7.08931e+00
75.000      7.30096e+00
76.000      7.54073e+00
77.000      7.91167e+00
78.000      8.49119e+00
79.000      9.31232e+00
80.000      1.03586e+01
81.000      1.15722e+01
82.000      1.28704e+01
83.000      1.41637e+01
84.000      1.53685e+01
85.000      1.64129e+01
86.000      1.72373e+01
87.000      1.77923e+01
88.000      1.80394e+01
89.000      1.79553e+01
90.000      1.75382e+01
91.000      1.68129e+01
92.000      1.58323e+01
93.000      1.46730e+01
94.000      1.34264e+01
95.000      1.21905e+01
96.000      1.10621e+01
97.000      1.01315e+01
98.000      9.47728e+00
99.000      9.15931e+00
100.000      9.21040e+00
101.000      9.62900e+00
102.000      1.03772e+01
103.000      1.13871e+01
104.000      1.25741e+01
105.000      1.38535e+01
106.000      1.51533e+01
107.000      1.64186e+01
108.000      1.76071e+01
109.000      1.86798e+01
110.000      1.95930e+01
111.000      2.02977e+01
112.000      2.07485e+01
113.000      2.09181e+01
114.000      2.08115e+01
115.000      2.04717e+01
116.000      1.99744e+01
117.000      1.94096e+01
118.000      1.88588e+01
119.000      1.83729e+01
120.000      1.79616e+01
121.000      1.75948e+01
122.000      1.72175e+01
123.000      1.67705e+01
124.000      1.62103e+01
125.000      1.55217e+01
126.000      1.47200e+01
127.000      1.38437e+01
128.000      1.29420e+01
129.000      1.20611e+01
130.000      1.12337e+01
131.000      1.04748e+01
132.000      9.78261e+00
133.000      9.14487e+00
134.000      8.54565e+00
135.000      7.97212e+00
136.000      7.41833e+00
137.000      6.88589e+00
138.000      6.38194e+00
139.000      5.91563e+00
140.000      5.49446e+00
141.000      5.12143e+00
142.000      4.79336e+00
143.000      4.50052e+00
144.000      4.22752e+00
145.000      3.95550e+00
146.000      3.66555e+00
147.000      3.34289e+00
148.000      2.98090e+00
149.000      2.58355e+00
150.000      2.16546e+00
151.000      1.74914e+00
152.000      1.36046e+00
153.000      1.02392e+00
154.000      7.59266e-01
155.000      5.80445e-01
156.000      4.96708e-01
157.000      5.14825e-01
158.000      6.41114e-01
159.000      8.82235e-01
160.000      1.24434e+00
161.000      1.73085e+00
162.000      2.33945e+00
163.000      3.05907e+00
164.000      3.86753e+00
165.000      4.73064e+00
166.000      5.60389e+00
167.000      6.43806e+00
168.000      7.18913e+00
169.000      7.83140e+00
170.000      8.37014e+00
171.000      8.84820e+00
172.000      9.34155e+00
173.000      9.94191e+00
174.000      1.07298e+01
175.000      1.17463e+01
176.000      1.29731e+01
177.000      1.43299e+01
178.000      1.56894e+01
179.000      1.69077e+01
180.000      1.78585e+01
181.000      1.84634e+01
182.000      1.87089e+01
183.000      1.86458e+01
184.000      1.83740e+01
185.000      1.80139e+01
186.000      1.76750e+01
187.000      1.74271e+01
188.000      1.72849e+01
189.000      1.72121e+01
190.000      1.71436e+01
191.000      1.70225e+01
192.000      1.68377e+01
193.000      1.66485e+01
194.000      1.65850e+01
195.000      1.68216e+01
196.000      1.75291e+01
197.000      1.88210e+01
198.000      2.07107e+01
199.000      2.30929e+01
200.000      2.57562e+01
201.000      2.84231e+01
202.000      3.08067e+01
203.000      3.26678e+01
204.000      3.38591e+01
205.000      3.43438e+01
206.000      3.41872e+01
207.000      3.35234e+01
208.000      3.25093e+01
209.000      3.12795e+01
210.000      2.99170e+01
211.000      2.84480e+01
212.000      2.68611e+01
213.000      2.51398e+01
214.000      2.32940e+01
215.000      2.13744e+01
216.000      1.94641e+01
217.000      1.76508e+01
218.000      1.59960e+01
219.000      1.45142e+01
220.000      1.31751e+01
221.000      1.19265e+01
222.000      1.07277e+01
223.000      9.58079e+00
224.000      8.54491e+00
225.000      7.73113e+00
226.000      7.27862e+00
227.000      7.32120e+00
228.000      7.95344e+00
229.000      9.20416e+00
230.000      1.10224e+01
231.000      1.32784e+01
232.000      1.57795e+01
233.000      1.82996e+01
234.000      2.06169e+01
235.000      2.25545e+01
236.000      2.40130e+01
237.000      2.49883e+01
238.000      2.55677e+01
239.000      2.59044e+01
240.000      2.61770e+01
241.000      2.65452e+01
242.000      2.71139e+01
243.000      2.79156e+01
244.000      2.89133e+01
245.000      3.00194e+01
246.000      3.11211e+01
247.000      3.21030e+01
248.000      3.28579e+01
249.000      3.32887e+01
250.000      3.33061e+01
251.000      3.28294e+01
252.000      3.17962e+01
253.000      3.01797e+01
254.000      2.80063e+01
255.000      2.53646e+01
256.000      2.23999e+01
257.000      1.92938e+01
258.000      1.62343e+01
259.000      1.33864e+01
260.000      1.08711e+01
261.000      8.75707e+00
262.000      7.06482e+00
263.000      5.77912e+00
264.000      4.86435e+00
265.000      4.27882e+00
266.000      3.98509e+00
267.000      3.95558e+00
268.000      4.17319e+00
269.000      4.62802e+00
270.000      5.31149e+00
271.000      6.20994e+00
272.000      7.29937e+00
273.000      8.54272e+00
274.000      9.88965e+00
275.000      1.12780e+01
276.000      1.26358e+01
277.000      1.38837e+01
278.000      1.49380e+01
279.000      1.57162e+01
280.000      1.61452e+01
281.000      1.61717e+01
282.000      1.57728e+01
283.000      1.49630e+01
284.000      1.37956e+01
285.000      1.23581e+01
286.000      1.07605e+01
287.000      9.12025e+00
288.000      7.54693e+00
289.000      6.12882e+00
290.000      4.92512e+00
291.000      3.96410e+00
292.000      3.24658e+00
293.000      2.75278e+00
294.000      2.44999e+00
295.000      2.29939e+00
296.000      2.26094e+00
297.000      2.29658e+00
298.000      2.37229e+00
299.000      2.45953e+00
300.000      2.53639e+00
301.000      2.58853e+00
302.000      2.60975e+00
303.000      2.60185e+00
304.000      2.57374e+00
305.000      2.53936e+00
306.000      2.51459e+00
307.000      2.51353e+00
308.000      2.54487e+00
309.000      2.60932e+00
310.000      2.69869e+00
311.000      2.79729e+00
312.000      2.88507e+00
313.000      2.94217e+00
314.000      2.95330e+00
315.000      2.91110e+00
316.000      2.81729e+00
317.000      2.68156e+00
318.000      2.51870e+00
319.000      2.34495e+00
320.000      2.17481e+00
321.000      2.01891e+00
322.000      1.88299e+00
323.000      1.76771e+00
324.000      1.66898e+00
325.000      1.57879e+00
326.000      1.48685e+00
327.000      1.38299e+00
328.000      1.25985e+00
329.000      1.11521e+00
330.000      9.52828e-01
331.000      7.81541e-01
332.000      6.12882e-01
333.000      4.58104e-01
334.000      3.25649e-01
335.000      2.19811e-01
336.000      1.40727e-01
337.000      8.53882e-02
338.000      4.90762e-02
339.000      2.67074e-02
340.000      1.37584e-02
341.000      6.70809e-03
342.000      3.09507e-03
343.000      1.35128e-03
344.000      5.58207e-04
345.000      2.18175e-04
346.000      8.06787e-05
347.000      2.82261e-05
348.000      9.34272e-06
349.000      2.92565e-06
350.000      8.66756e-07
351.000      2.42936e-07
352.000      6.44182e-08
353.000      1.61601e-08
354.000      3.83531e-09
355.000      8.61140e-10
356.000      1.82922e-10
357.000      3.67600e-11
358.000      6.98882e-12
359.000      1.25704e-12
360.000      2.13901e-13
361.000      3.44346e-14
362.000      5.24438e-15
363.000      7.55633e-16
364.000      1.03002e-16
365.000      1.32830e-17
366.000      1.62057e-18
367.000      1.87048e-19
368.000      2.04248e-20
369.000      2.10999e-21
370.000      2.06216e-22
371.000      1.90668e-23
372.000      1.66784e-24
373.000      1.38022e-25
374.000      1.08058e-26
375.000      8.00360e-28
376.000      5.60830e-29
377.000      3.71787e-30
378.000      2.33171e-31
379.000      1.38348e-32
380.000      7.76586e-34
381.000      4.12405e-35
382.000      2.07193e-36
383.000      9.84790e-38
384.000      4.42823e-39
385.000      1.88380e-40
386.000      7.58151e-42
387.000      2.88666e-43
388.000      1.03980e-44
389.000      3.54345e-46
390.000      1.14240e-47
391.000      3.48440e-49
392.000      1.00544e-50
393.000      2.74473e-52
394.000      7.08863e-54
395.000      1.73198e-55
396.000      4.00350e-57
397.000      8.75498e-59
398.000      1.81129e-60
399.000      3.54518e-62
400.000      6.56458e-64
401.000      1.14999e-65
402.000      1.90588e-67
403.000      2.98825e-69
404.000      4.43256e-71
405.000      6.22030e-73
406.000      8.25819e-75
407.000      1.03723e-76
408.000      1.23249e-78
409.000      1.38552e-80
410.000      1.47352e-82
411.000      1.48258e-84
412.000      1.41122e-86
413.000      1.27085e-88
414.000      1.08270e-90
415.000      8.72649e-93
416.000      6.65410e-95
417.000      4.80017e-97
418.000      3.27598e-99
419.000     2.11516e-101
420.000     1.29200e-103
421.000     7.46623e-106
422.000     4.08185e-108
423.000     2.11120e-110
424.000     1.03305e-112
425.000     4.78221e-115
426.000     2.09437e-117
427.000     8.67755e-120
428.000     3.40140e-122
429.000     1.26135e-124
430.000     4.42520e-127
431.000     1.46874e-129
432.000     4.61187e-132
433.000     1.37002e-134
434.000     3.85028e-137
435.000     1.02371e-139
436.000     2.57501e-142
437.000     6.12770e-145
438.000     1.37954e-147
439.000     2.93825e-150
440.000     5.92054e-153
441.000     1.12863e-155
442.000     2.03544e-158
443.000     3.47283e-161
444.000     5.60564e-164
445.000     8.56023e-167
446.000     1.23670e-169
447.000     1.69028e-172
448.000     2.18560e-175
449.000     2.67363e-178
450.000     3.09421e-181
451.000     3.38778e-184
452.000     3.50913e-187
453.000     3.43874e-190
454.000     3.18800e-193
455.000     2.79611e-196
456.000     2.32011e-199
457.000     1.82129e-202
458.000     1.35260e-205
459.000     9.50330e-209
460.000     6.31682e-212
461.000     3.97228e-215
462.000     2.36320e-218
463.000     1.33008e-221
464.000     7.08225e-225
465.000     3.56766e-228
466.000     1.70025e-231
467.000     7.66584e-235
468.000     3.26983e-238
469.000     1.31949e-241
470.000     5.03741e-245
471.000     1.81939e-248
472.000     6.21671e-252
473.000     2.00962e-255
474.000     6.14588e-259
475.000     1.77816e-262
476.000     4.86718e-266
477.000     1.26038e-269
478.000     3.08775e-273
479.000     7.15649e-277
480.000     1.56919e-280
481.000     3.25514e-284
482.000     6.38824e-288
483.000     1.18607e-291
484.000     2.08332e-295
485.000     3.46195e-299
486.000     5.44255e-303
487.000     8.09472e-307
488.000     1.13899e-310
489.000     1.51619e-314
490.000     1.90944e-318
491.000     2.27270e-322
492.000      0.00000e+00
493.000      0.00000e+00
494.000      0.00000e+00
495.000      0.00000e+00
496.000      0.00000e+00
497.000      0.00000e+00
498.000      0.00000e+00
499.000      0.00000e+00
500.000      0.00000e+00
