# Gaussian folded, width=10 cm^-1
# [cm^-1] arbitrary
0.000      3.00000e+00
1.000      2.91796e+00
2.000      2.68508e+00
3.000      2.33749e+00
4.000      1.92514e+00
5.000      1.50000e+00
6.000      1.10570e+00
7.000      7.71085e-01
8.000      5.08727e-01
9.000      3.17531e-01
10.000      1.87506e-01
11.000      1.04765e-01
12.000      5.54199e-02
13.000      2.78609e-02
14.000      1.36047e-02
15.000      7.22552e-03
16.000      5.93572e-03
17.000      9.26773e-03
18.000      1.91402e-02
19.000      4.04297e-02
20.000      8.19906e-02
21.000      1.57829e-01
22.000      2.87830e-01
23.000      4.97143e-01
24.000      8.13213e-01
25.000      1.25982e+00
26.000      1.84841e+00
27.000      2.56849e+00
28.000      3.38030e+00
29.000      4.21338e+00
30.000      4.97404e+00
31.000      5.56153e+00
32.000      5.88964e+00
33.000      5.90744e+00
34.000      5.61232e+00
35.000      5.05083e+00
36.000      4.30718e+00
37.000      3.48349e+00
38.000      2.67877e+00
39.000      1.97286e+00
40.000      1.41936e+00
41.000      1.04728e+00
42.000      8.68318e-01
43.000      8.85211e-01
44.000      1.09687e+00
45.000      1.49806e+00
46.000      2.07384e+00
47.000      2.79146e+00
48.000      3.59395e+00
49.000      4.39980e+00
50.000      5.11116e+00
51.000      5.63028e+00
52.000      5.87980e+00
53.000      5.82087e+00
54.000      5.46272e+00
55.000      4.86029e+00
56.000      4.10083e+00
57.000      3.28403e+00
58.000      2.50236e+00
59.000      1.82724e+00
60.000      1.30395e+00
61.000      9.54578e-01
62.000      7.85750e-01
63.000      7.96946e-01
64.000      9.85653e-01
65.000      1.34760e+00
66.000      1.87246e+00
67.000      2.53740e+00
68.000      3.30220e+00
69.000      4.10949e+00
70.000      4.89212e+00
71.000      5.58708e+00
72.000      6.15222e+00
73.000      6.58022e+00
74.000      6.90419e+00
75.000      7.19199e+00
76.000      7.53018e+00
77.000      8.00236e+00
78.000      8.66882e+00
79.000      9.55334e+00
80.000      1.06403e+01
81.000      1.18803e+01
82.000      1.32016e+01
83.000      1.45202e+01
84.000      1.57487e+01
85.000      1.68011e+01
86.000      1.75972e+01
87.000      1.80693e+01
88.000      1.81714e+01
89.000      1.78883e+01
90.000      1.72431e+01
91.000      1.62967e+01
92.000      1.51404e+01
93.000      1.38813e+01
94.000      1.26271e+01
95.000      1.14742e+01
96.000      1.05009e+01
97.000      9.76749e+00
98.000      9.31879e+00
99.000      9.18575e+00
100.000      9.38485e+00
101.000      9.91489e+00
102.000      1.07535e+01
103.000      1.18556e+01
104.000      1.31548e+01
105.000      1.45673e+01
106.000      1.59978e+01
107.000      1.73458e+01
108.000      1.85148e+01
109.000      1.94226e+01
110.000      2.00142e+01
111.000      2.02730e+01
112.000      2.02264e+01
113.000      1.99423e+01
114.000      1.95144e+01
115.000      1.90396e+01
116.000      1.85944e+01
117.000      1.82174e+01
118.000      1.79040e+01
119.000      1.76149e+01
120.000      1.72952e+01
121.000      1.68972e+01
122.000      1.63977e+01
123.000      1.58064e+01
124.000      1.51611e+01
125.000      1.45153e+01
126.000      1.39207e+01
127.000      1.34131e+01
128.000      1.30034e+01
129.000      1.26772e+01
130.000      1.23996e+01
131.000      1.21240e+01
132.000      1.18025e+01
133.000      1.13937e+01
134.000      1.08690e+01
135.000      1.02165e+01
136.000      9.44168e+00
137.000      8.56746e+00
138.000      7.63144e+00
139.000      6.68188e+00
140.000      5.77137e+00
141.000      4.94894e+00
142.000      4.25153e+00
143.000      3.69677e+00
144.000      3.27948e+00
145.000      2.97328e+00
146.000      2.73761e+00
147.000      2.52831e+00
148.000      2.30867e+00
149.000      2.05758e+00
150.000      1.77248e+00
151.000      1.46689e+00
152.000      1.16429e+00
153.000      8.90900e-01
154.000      6.70135e-01
155.000      5.19996e-01
156.000      4.53387e-01
157.000      4.80138e-01
158.000      6.09150e-01
159.000      8.49366e-01
160.000      1.20902e+00
161.000      1.69335e+00
162.000      2.30142e+00
163.000      3.02278e+00
164.000      3.83497e+00
165.000      4.70259e+00
166.000      5.57926e+00
167.000      6.41364e+00
168.000      7.16004e+00
169.000      7.79226e+00
170.000      8.31680e+00
171.000      8.77993e+00
172.000      9.26306e+00
173.000      9.86438e+00
174.000      1.06701e+01
175.000      1.17238e+01
176.000      1.30048e+01
177.000      1.44243e+01
178.000      1.58423e+01
179.000      1.71009e+01
180.000      1.80632e+01
181.000      1.86464e+01
182.000      1.88405e+01
183.000      1.87068e+01
184.000      1.83591e+01
185.000      1.79316e+01
186.000      1.75440e+01
187.000      1.72704e+01
188.000      1.71239e+01
189.000      1.70609e+01
190.000      1.70058e+01
191.000      1.68915e+01
192.000      1.66999e+01
193.000      1.64908e+01
194.000      1.64036e+01
195.000      1.66296e+01
196.000      1.73600e+01
197.000      1.87250e+01
198.000      2.07433e+01
199.000      2.32989e+01
200.000      2.61529e+01
201.000      2.89897e+01
202.000      3.14832e+01
203.000      3.33656e+01
204.000      3.44795e+01
205.000      3.48001e+01
206.000      3.44229e+01
207.000      3.35223e+01
208.000      3.22957e+01
209.000      3.09097e+01
210.000      2.94650e+01
211.000      2.79903e+01
212.000      2.64621e+01
213.000      2.48424e+01
214.000      2.31145e+01
215.000      2.13035e+01
216.000      1.94722e+01
217.000      1.76983e+01
218.000      1.60434e+01
219.000      1.45327e+01
220.000      1.31518e+01
221.000      1.18655e+01
222.000      1.06458e+01
223.000      9.49993e+00
224.000      8.48388e+00
225.000      7.69899e+00
226.000      7.27137e+00
227.000      7.32197e+00
228.000      7.93555e+00
229.000      9.13628e+00
230.000      1.08751e+01
231.000      1.30314e+01
232.000      1.54294e+01
233.000      1.78656e+01
234.000      2.01431e+01
235.000      2.21065e+01
236.000      2.36683e+01
237.000      2.48215e+01
238.000      2.56345e+01
239.000      2.62287e+01
240.000      2.67445e+01
241.000      2.73063e+01
242.000      2.79947e+01
243.000      2.88345e+01
244.000      2.97987e+01
245.000      3.08229e+01
246.000      3.18231e+01
247.000      3.27073e+01
248.000      3.33788e+01
249.000      3.37349e+01
250.000      3.36673e+01
251.000      3.30727e+01
252.000      3.18735e+01
253.000      3.00439e+01
254.000      2.76305e+01
255.000      2.47577e+01
256.000      2.16133e+01
257.000      1.84168e+01
258.000      1.53800e+01
259.000      1.26716e+01
260.000      1.03949e+01
261.000      8.58286e+00
262.000      7.20916e+00
263.000      6.20910e+00
264.000      5.50352e+00
265.000      5.01948e+00
266.000      4.70427e+00
267.000      4.53177e+00
268.000      4.50229e+00
269.000      4.63777e+00
270.000      4.97408e+00
271.000      5.55118e+00
272.000      6.40179e+00
273.000      7.53906e+00
274.000      8.94465e+00
275.000      1.05598e+01
276.000      1.22821e+01
277.000      1.39714e+01
278.000      1.54639e+01
279.000      1.65953e+01
280.000      1.72258e+01
281.000      1.72648e+01
282.000      1.66873e+01
283.000      1.55393e+01
284.000      1.39306e+01
285.000      1.20167e+01
286.000      9.97453e+00
287.000      7.97618e+00
288.000      6.16685e+00
289.000      4.65006e+00
290.000      3.48165e+00
291.000      2.67174e+00
292.000      2.19236e+00
293.000      1.98818e+00
294.000      1.98804e+00
295.000      2.11611e+00
296.000      2.30169e+00
297.000      2.48709e+00
298.000      2.63275e+00
299.000      2.71905e+00
300.000      2.74446e+00
301.000      2.72090e+00
302.000      2.66763e+00
303.000      2.60554e+00
304.000      2.55280e+00
305.000      2.52273e+00
306.000      2.52307e+00
307.000      2.55637e+00
308.000      2.62044e+00
309.000      2.70902e+00
310.000      2.81273e+00
311.000      2.92060e+00
312.000      3.02211e+00
313.000      3.10925e+00
314.000      3.17759e+00
315.000      3.22588e+00
316.000      3.25412e+00
317.000      3.26110e+00
318.000      3.24258e+00
319.000      3.19106e+00
320.000      3.09749e+00
321.000      2.95405e+00
322.000      2.75708e+00
323.000      2.50906e+00
324.000      2.21902e+00
325.000      1.90157e+00
326.000      1.57465e+00
327.000      1.25685e+00
328.000      9.64684e-01
329.000      7.10436e-01
330.000      5.00971e-01
331.000      3.37627e-01
332.000      2.17107e-01
333.000      1.33012e-01
334.000      7.75422e-02
335.000      4.29694e-02
336.000      2.26135e-02
337.000      1.12939e-02
338.000      5.34966e-03
339.000      2.40217e-03
340.000      1.02212e-03
341.000      4.11989e-04
342.000      1.57268e-04
343.000      5.68428e-05
344.000      1.94500e-05
345.000      6.29966e-06
346.000      1.93117e-06
347.000      5.60261e-07
348.000      1.53816e-07
349.000      3.99600e-08
350.000      9.82304e-09
351.000      2.28480e-09
352.000      5.02826e-10
353.000      1.04700e-10
354.000      2.06265e-11
355.000      3.84457e-12
356.000      6.77970e-13
357.000      1.13112e-13
358.000      1.78540e-14
359.000      2.66621e-15
360.000      3.76685e-16
361.000      5.03486e-17
362.000      6.36679e-18
363.000      7.61686e-19
364.000      8.62090e-20
365.000      9.23103e-21
366.000      9.35121e-22
367.000      8.96201e-23
368.000      8.12573e-24
369.000      6.97008e-25
370.000      5.65630e-26
371.000      4.34255e-27
372.000      3.15411e-28
373.000      2.16733e-29
374.000      1.40894e-30
375.000      8.66520e-32
376.000      5.04176e-33
377.000      2.77526e-34
378.000      1.44525e-35
379.000      7.12031e-37
380.000      3.31874e-38
381.000      1.46341e-39
382.000      6.10486e-41
383.000      2.40937e-42
384.000      8.99598e-44
385.000      3.17769e-45
386.000      1.06192e-46
387.000      3.35730e-48
388.000      1.00417e-49
389.000      2.84144e-51
390.000      7.60659e-53
391.000      1.92645e-54
392.000      4.61578e-56
393.000      1.04628e-57
394.000      2.24373e-59
395.000      4.55207e-61
396.000      8.73707e-63
397.000      1.58650e-64
398.000      2.72541e-66
399.000      4.42937e-68
400.000      6.81034e-70
401.000      9.90634e-72
402.000      1.36325e-73
403.000      1.77482e-75
404.000      2.18601e-77
405.000      2.54723e-79
406.000      2.80802e-81
407.000      2.92854e-83
408.000      2.88947e-85
409.000      2.69715e-87
410.000      2.38181e-89
411.000      1.98989e-91
412.000      1.57277e-93
413.000      1.17604e-95
414.000      8.31947e-98
415.000     5.56784e-100
416.000     3.52530e-102
417.000     2.11165e-104
418.000     1.19665e-106
419.000     6.41545e-109
420.000     3.25392e-111
421.000     1.56136e-113
422.000     7.08790e-116
423.000     3.04403e-118
424.000     1.23680e-120
425.000     4.75407e-123
426.000     1.72882e-125
427.000     5.94775e-128
428.000     1.93585e-130
429.000     5.96088e-133
430.000     1.73646e-135
431.000     4.78562e-138
432.000     1.24775e-140
433.000     3.07777e-143
434.000     7.18227e-146
435.000     1.58564e-148
436.000     3.31181e-151
437.000     6.54401e-154
438.000     1.22332e-156
439.000     2.16348e-159
440.000     3.61980e-162
441.000     5.72972e-165
442.000     8.58024e-168
443.000     1.21558e-170
444.000     1.62924e-173
445.000     2.06587e-176
446.000     2.47822e-179
447.000     2.81252e-182
448.000     3.01972e-185
449.000     3.06730e-188
450.000     2.94757e-191
451.000     2.67971e-194
452.000     2.30479e-197
453.000     1.87538e-200
454.000     1.44367e-203
455.000     1.05139e-206
456.000     7.24395e-210
457.000     4.72178e-213
458.000     2.91175e-216
459.000     1.69871e-219
460.000     9.37567e-223
461.000     4.89557e-226
462.000     2.41836e-229
463.000     1.13021e-232
464.000     4.99702e-236
465.000     2.09017e-239
466.000     8.27124e-243
467.000     3.09654e-246
468.000     1.09673e-249
469.000     3.67487e-253
470.000     1.16493e-256
471.000     3.49364e-260
472.000     9.91226e-264
473.000     2.66063e-267
474.000     6.75638e-271
475.000     1.62316e-274
476.000     3.68915e-278
477.000     7.93247e-282
478.000     1.61365e-285
479.000     3.10546e-289
480.000     5.65406e-293
481.000     9.73898e-297
482.000     1.58703e-300
483.000     2.44665e-304
484.000     3.56843e-308
485.000     4.92380e-312
486.000     6.42748e-316
487.000     7.93766e-320
488.000     9.88131e-324
489.000      0.00000e+00
490.000      0.00000e+00
491.000      0.00000e+00
492.000      0.00000e+00
493.000      0.00000e+00
494.000      0.00000e+00
495.000      0.00000e+00
496.000      0.00000e+00
497.000      0.00000e+00
498.000      0.00000e+00
499.000      0.00000e+00
500.000      0.00000e+00
