# Gaussian folded, width=10 cm^-1
# [cm^-1] arbitrary
0.000      3.00000e+00
1.000      2.91796e+00
2.000      2.68508e+00
3.000      2.33749e+00
4.000      1.92514e+00
5.000      1.50000e+00
6.000      1.10570e+00
7.000      7.71085e-01
8.000      5.08727e-01
9.000      3.17530e-01
10.000      1.87501e-01
11.000      1.04749e-01
12.000      5.53705e-02
13.000      2.77165e-02
14.000      1.32061e-02
15.000      6.18539e-03
16.000      3.37229e-03
17.000      3.30226e-03
18.000      6.03675e-03
19.000      1.32754e-02
20.000      2.89321e-02
21.000      6.01466e-02
22.000      1.18543e-01
23.000      2.21299e-01
24.000      3.91266e-01
25.000      6.55181e-01
26.000      1.03912e+00
27.000      1.56099e+00
28.000      2.22118e+00
29.000      2.99390e+00
30.000      3.82276e+00
31.000      4.62405e+00
32.000      5.29897e+00
33.000      5.75309e+00
34.000      5.91794e+00
35.000      5.76790e+00
36.000      5.32681e+00
37.000      4.66183e+00
38.000      3.86700e+00
39.000      3.04201e+00
40.000      2.27315e+00
41.000      1.62154e+00
42.000      1.12060e+00
43.000      7.81279e-01
44.000      6.01587e-01
45.000      5.76119e-01
46.000      7.02322e-01
47.000      9.81592e-01
48.000      1.41507e+00
49.000      1.99564e+00
50.000      2.69897e+00
51.000      3.47718e+00
52.000      4.25849e+00
53.000      4.95475e+00
54.000      5.47605e+00
55.000      5.74906e+00
56.000      5.73366e+00
57.000      5.43248e+00
58.000      4.89033e+00
59.000      4.18359e+00
60.000      3.40333e+00
61.000      2.63753e+00
62.000      1.95749e+00
63.000      1.41157e+00
64.000      1.02621e+00
65.000      8.12035e-01
66.000      7.71401e-01
67.000      9.03950e-01
68.000      1.20792e+00
69.000      1.67688e+00
70.000      2.29349e+00
71.000      3.02323e+00
72.000      3.81192e+00
73.000      4.58967e+00
74.000      5.28224e+00
75.000      5.82772e+00
76.000      6.19387e+00
77.000      6.39026e+00
78.000      6.47032e+00
79.000      6.52135e+00
80.000      6.64469e+00
81.000      6.93182e+00
82.000      7.44353e+00
83.000      8.19826e+00
84.000      9.17199e+00
85.000      1.03082e+01
86.000      1.15326e+01
87.000      1.27673e+01
88.000      1.39394e+01
89.000      1.49832e+01
90.000      1.58389e+01
91.000      1.64508e+01
92.000      1.67698e+01
93.000      1.67599e+01
94.000      1.64083e+01
95.000      1.57340e+01
96.000      1.47911e+01
97.000      1.36641e+01
98.000      1.24560e+01
99.000      1.12726e+01
100.000      1.02070e+01
101.000      9.33055e+00
102.000      8.69027e+00
103.000      8.31292e+00
104.000      8.21187e+00
105.000      8.39282e+00
106.000      8.85572e+00
107.000      9.59235e+00
108.000      1.05813e+01
109.000      1.17831e+01
110.000      1.31379e+01
111.000      1.45670e+01
112.000      1.59780e+01
113.000      1.72733e+01
114.000      1.83599e+01
115.000      1.91601e+01
116.000      1.96221e+01
117.000      1.97271e+01
118.000      1.94939e+01
119.000      1.89764e+01
120.000      1.82570e+01
121.000      1.74338e+01
122.000      1.66052e+01
123.000      1.58558e+01
124.000      1.52446e+01
125.000      1.47989e+01
126.000      1.45156e+01
127.000      1.43657e+01
128.000      1.43041e+01
129.000      1.42790e+01
130.000      1.42407e+01
131.000      1.41474e+01
132.000      1.39690e+01
133.000      1.36874e+01
134.000      1.32965e+01
135.000      1.28008e+01
136.000      1.22142e+01
137.000      1.15583e+01
138.000      1.08605e+01
139.000      1.01513e+01
140.000      9.46078e+00
141.000      8.81469e+00
142.000      8.23104e+00
143.000      7.71795e+00
144.000      7.27363e+00
145.000      6.88848e+00
146.000      6.54859e+00
147.000      6.23962e+00
148.000      5.94972e+00
149.000      5.67095e+00
150.000      5.39929e+00
151.000      5.13369e+00
152.000      4.87491e+00
153.000      4.62423e+00
154.000      4.38242e+00
155.000      4.14852e+00
156.000      3.91910e+00
157.000      3.68811e+00
158.000      3.44807e+00
159.000      3.19255e+00
160.000      2.91962e+00
161.000      2.63528e+00
162.000      2.35559e+00
163.000      2.10657e+00
164.000      1.92147e+00
165.000      1.83590e+00
166.000      1.88158e+00
167.000      2.08045e+00
168.000      2.44025e+00
169.000      2.95267e+00
170.000      3.59431e+00
171.000      4.33020e+00
172.000      5.11896e+00
173.000      5.91859e+00
174.000      6.69203e+00
175.000      7.41166e+00
176.000      8.06212e+00
177.000      8.64129e+00
178.000      9.15911e+00
179.000      9.63462e+00
180.000      1.00919e+01
181.000      1.05561e+01
182.000      1.10495e+01
183.000      1.15892e+01
184.000      1.21846e+01
185.000      1.28346e+01
186.000      1.35263e+01
187.000      1.42330e+01
188.000      1.49164e+01
189.000      1.55314e+01
190.000      1.60346e+01
191.000      1.63948e+01
192.000      1.66009e+01
193.000      1.66657e+01
194.000      1.66245e+01
195.000      1.65267e+01
196.000      1.64273e+01
197.000      1.63776e+01
198.000      1.64196e+01
199.000      1.65843e+01
200.000      1.68906e+01
201.000      1.73450e+01
202.000      1.79390e+01
203.000      1.86449e+01
204.000      1.94125e+01
205.000      2.01695e+01
206.000      2.08264e+01
207.000      2.12880e+01
208.000      2.14691e+01
209.000      2.13108e+01
210.000      2.07944e+01
211.000      1.99471e+01
212.000      1.88402e+01
213.000      1.75774e+01
214.000      1.62784e+01
215.000      1.50603e+01
216.000      1.40224e+01
217.000      1.32366e+01
218.000      1.27430e+01
219.000      1.25512e+01
220.000      1.26441e+01
221.000      1.29835e+01
222.000      1.35172e+01
223.000      1.41872e+01
224.000      1.49376e+01
225.000      1.57222e+01
226.000      1.65079e+01
227.000      1.72731e+01
228.000      1.80038e+01
229.000      1.86864e+01
230.000      1.93037e+01
231.000      1.98332e+01
232.000      2.02511e+01
233.000      2.05377e+01
234.000      2.06846e+01
235.000      2.06981e+01
236.000      2.06012e+01
237.000      2.04299e+01
238.000      2.02289e+01
239.000      2.00446e+01
240.000      1.99187e+01
241.000      1.98824e+01
242.000      1.99536e+01
243.000      2.01341e+01
244.000      2.04113e+01
245.000      2.07591e+01
246.000      2.11404e+01
247.000      2.15093e+01
248.000      2.18131e+01
249.000      2.19941e+01
250.000      2.19936e+01
251.000      2.17577e+01
252.000      2.12446e+01
253.000      2.04325e+01
254.000      1.93258e+01
255.000      1.79581e+01
256.000      1.63905e+01
257.000      1.47054e+01
258.000      1.29968e+01
259.000      1.13586e+01
260.000      9.87210e+00
261.000      8.59614e+00
262.000      7.56072e+00
263.000      6.76611e+00
264.000      6.18738e+00
265.000      5.78316e+00
266.000      5.50619e+00
267.000      5.31274e+00
268.000      5.16917e+00
269.000      5.05486e+00
270.000      4.96234e+00
271.000      4.89584e+00
272.000      4.86914e+00
273.000      4.90248e+00
274.000      5.01787e+00
275.000      5.23240e+00
276.000      5.55010e+00
277.000      5.95501e+00
278.000      6.40808e+00
279.000      6.85050e+00
280.000      7.21352e+00
281.000      7.43268e+00
282.000      7.46228e+00
283.000      7.28582e+00
284.000      6.91941e+00
285.000      6.40752e+00
286.000      5.81268e+00
287.000      5.20244e+00
288.000      4.63695e+00
289.000      4.15982e+00
290.000      3.79363e+00
291.000      3.54018e+00
292.000      3.38449e+00
293.000      3.30131e+00
294.000      3.26241e+00
295.000      3.24314e+00
296.000      3.22663e+00
297.000      3.20492e+00
298.000      3.17712e+00
299.000      3.14591e+00
300.000      3.11412e+00
301.000      3.08312e+00
302.000      3.05327e+00
303.000      3.02582e+00
304.000      3.00446e+00
305.000      2.99524e+00
306.000      3.00468e+00
307.000      3.03688e+00
308.000      3.09119e+00
309.000      3.16162e+00
310.000      3.23842e+00
311.000      3.31105e+00
312.000      3.37158e+00
313.000      3.41738e+00
314.000      3.45241e+00
315.000      3.48669e+00
316.000      3.53406e+00
317.000      3.60862e+00
318.000      3.72060e+00
319.000      3.87306e+00
320.000      4.06097e+00
321.000      4.27350e+00
322.000      4.49965e+00
323.000      4.73570e+00
324.000      4.99197e+00
325.000      5.29629e+00
326.000      5.69207e+00
327.000      6.23075e+00
328.000      6.95960e+00
329.000      7.90813e+00
330.000      9.07644e+00
331.000      1.04293e+01
332.000      1.18981e+01
333.000      1.33906e+01
334.000      1.48063e+01
335.000      1.60529e+01
336.000      1.70596e+01
337.000      1.77834e+01
338.000      1.82078e+01
339.000      1.83358e+01
340.000      1.81819e+01
341.000      1.77659e+01
342.000      1.71108e+01
343.000      1.62444e+01
344.000      1.52024e+01
345.000      1.40293e+01
346.000      1.27757e+01
347.000      1.14936e+01
348.000      1.02309e+01
349.000      9.02788e+00
350.000      7.91659e+00
351.000      6.92232e+00
352.000      6.06529e+00
353.000      5.36110e+00
354.000      4.81963e+00
355.000      4.44294e+00
356.000      4.22379e+00
357.000      4.14580e+00
358.000      4.18548e+00
359.000      4.31573e+00
360.000      4.50956e+00
361.000      4.74298e+00
362.000      4.99652e+00
363.000      5.25506e+00
364.000      5.50652e+00
365.000      5.73992e+00
366.000      5.94342e+00
367.000      6.10300e+00
368.000      6.20214e+00
369.000      6.22296e+00
370.000      6.14882e+00
371.000      5.96807e+00
372.000      5.67815e+00
373.000      5.28898e+00
374.000      4.82434e+00
375.000      4.32070e+00
376.000      3.82324e+00
377.000      3.37972e+00
378.000      3.03331e+00
379.000      2.81579e+00
380.000      2.74231e+00
381.000      2.80866e+00
382.000      2.99153e+00
383.000      3.25167e+00
384.000      3.53952e+00
385.000      3.80248e+00
386.000      3.99274e+00
387.000      4.07424e+00
388.000      4.02736e+00
389.000      3.85064e+00
390.000      3.55901e+00
391.000      3.17948e+00
392.000      2.74544e+00
393.000      2.29106e+00
394.000      1.84685e+00
395.000      1.43691e+00
396.000      1.07765e+00
397.000      7.77824e-01
398.000      5.39309e-01
399.000      3.58509e-01
400.000      2.28050e-01
401.000      1.38560e-01
402.000      8.02799e-02
403.000      4.42903e-02
404.000      2.32385e-02
405.000      1.15840e-02
406.000      5.48138e-03
407.000      2.46038e-03
408.000      1.04702e-03
409.000      4.22231e-04
410.000      1.61301e-04
411.000      5.83574e-05
412.000      1.99907e-05
413.000      6.48270e-06
414.000      1.98986e-06
415.000      5.78070e-07
416.000      1.58925e-07
417.000      4.13454e-08
418.000      1.01781e-08
419.000      2.37076e-09
420.000      5.22491e-10
421.000      1.08950e-10
422.000      2.14946e-11
423.000      4.01212e-12
424.000      7.08525e-13
425.000      1.18378e-13
426.000      1.87118e-14
427.000      2.79826e-15
428.000      3.95902e-16
429.000      5.29919e-17
430.000      6.71049e-18
431.000      8.03935e-19
432.000      9.11188e-20
433.000      9.77046e-21
434.000      9.91155e-22
435.000      9.51234e-23
436.000      8.63678e-24
437.000      7.41882e-25
438.000      6.02888e-26
439.000      4.63507e-27
440.000      3.37127e-28
441.000      2.31980e-29
442.000      1.51016e-30
443.000      9.30069e-32
444.000      5.41907e-33
445.000      2.98711e-34
446.000      1.55774e-35
447.000      7.68526e-37
448.000      3.58706e-38
449.000      1.58393e-39
450.000      6.61686e-41
451.000      2.61508e-42
452.000      9.77768e-44
453.000      3.45863e-45
454.000      1.15742e-46
455.000      3.66433e-48
456.000      1.09753e-49
457.000      3.10995e-51
458.000      8.33701e-53
459.000      2.11439e-54
460.000      5.07313e-56
461.000      1.15156e-57
462.000      2.47293e-59
463.000      5.02408e-61
464.000      9.65648e-63
465.000      1.75589e-64
466.000      3.02062e-66
467.000      4.91599e-68
468.000      7.56908e-70
469.000      1.10254e-71
470.000      1.51936e-73
471.000      1.98082e-75
472.000      2.44314e-77
473.000      2.85082e-79
474.000      3.14708e-81
475.000      3.28672e-83
476.000      3.24740e-85
477.000      3.03548e-87
478.000      2.68433e-89
479.000      2.24575e-91
480.000      1.77748e-93
481.000      1.33097e-95
482.000      9.42857e-98
483.000     6.31891e-100
484.000     4.00642e-102
485.000     2.40319e-104
486.000     1.36376e-106
487.000     7.32157e-109
488.000     3.71868e-111
489.000     1.78686e-113
490.000     8.12288e-116
491.000     3.49339e-118
492.000     1.42135e-120
493.000     5.47110e-123
494.000     1.99235e-125
495.000     6.86393e-128
496.000     2.23716e-130
497.000     6.89828e-133
498.000     2.01234e-135
499.000     5.55366e-138
500.000     1.45002e-140
