# Gaussian folded, width=10 cm^-1
# [cm^-1] arbitrary
0.000      3.00000e+00
1.000      2.91796e+00
2.000      2.68508e+00
3.000      2.33749e+00
4.000      1.92514e+00
5.000      1.50000e+00
6.000      1.10570e+00
7.000      7.71085e-01
8.000      5.08727e-01
9.000      3.17529e-01
10.000      1.87500e-01
11.000      1.04746e-01
12.000      5.53592e-02
13.000      2.76803e-02
14.000      1.30960e-02
15.000      5.86874e-03
16.000      2.51053e-03
17.000      1.08367e-03
18.000      6.34210e-04
19.000      8.34028e-04
20.000      1.84367e-03
21.000      4.39946e-03
22.000      1.01465e-02
23.000      2.22536e-02
24.000      4.63200e-02
25.000      9.14895e-02
26.000      1.71501e-01
27.000      3.05159e-01
28.000      5.15491e-01
29.000      8.26841e-01
30.000      1.25948e+00
31.000      1.82218e+00
32.000      2.50422e+00
33.000      3.26949e+00
34.000      4.05553e+00
35.000      4.77970e+00
36.000      5.35243e+00
37.000      5.69512e+00
38.000      5.75767e+00
39.000      5.53047e+00
40.000      5.04682e+00
41.000      4.37496e+00
42.000      3.60235e+00
43.000      2.81714e+00
44.000      2.09231e+00
45.000      1.47622e+00
46.000      9.90728e-01
47.000      6.35755e-01
48.000      3.97378e-01
49.000      2.56701e-01
50.000      1.97269e-01
51.000      2.09926e-01
52.000      2.94803e-01
53.000      4.60557e-01
54.000      7.21073e-01
55.000      1.09003e+00
56.000      1.57405e+00
57.000      2.16586e+00
58.000      2.83917e+00
59.000      3.54739e+00
60.000      4.22742e+00
61.000      4.80828e+00
62.000      5.22323e+00
63.000      5.42217e+00
64.000      5.38140e+00
65.000      5.10799e+00
66.000      4.63794e+00
67.000      4.02889e+00
68.000      3.34934e+00
69.000      2.66747e+00
70.000      2.04202e+00
71.000      1.51711e+00
72.000      1.12147e+00
73.000      8.71081e-01
74.000      7.73559e-01
75.000      8.31879e-01
76.000      1.04582e+00
77.000      1.41029e+00
78.000      1.91125e+00
79.000      2.52099e+00
80.000      3.19555e+00
81.000      3.87620e+00
82.000      4.49630e+00
83.000      4.99248e+00
84.000      5.31769e+00
85.000      5.45258e+00
86.000      5.41197e+00
87.000      5.24456e+00
88.000      5.02561e+00
89.000      4.84454e+00
90.000      4.78985e+00
91.000      4.93473e+00
92.000      5.32559e+00
93.000      5.97560e+00
94.000      6.86351e+00
95.000      7.93756e+00
96.000      9.12316e+00
97.000      1.03329e+01
98.000      1.14776e+01
99.000      1.24766e+01
100.000      1.32671e+01
101.000      1.38106e+01
102.000      1.40953e+01
103.000      1.41340e+01
104.000      1.39569e+01
105.000      1.36029e+01
106.000      1.31099e+01
107.000      1.25104e+01
108.000      1.18297e+01
109.000      1.10904e+01
110.000      1.03178e+01
111.000      9.54415e+00
112.000      8.80993e+00
113.000      8.16050e+00
114.000      7.64020e+00
115.000      7.28593e+00
116.000      7.12263e+00
117.000      7.16202e+00
118.000      7.40405e+00
119.000      7.83942e+00
120.000      8.45143e+00
121.000      9.21596e+00
122.000      1.01003e+01
123.000      1.10621e+01
124.000      1.20509e+01
125.000      1.30122e+01
126.000      1.38942e+01
127.000      1.46546e+01
128.000      1.52656e+01
129.000      1.57155e+01
130.000      1.60071e+01
131.000      1.61524e+01
132.000      1.61686e+01
133.000      1.60722e+01
134.000      1.58769e+01
135.000      1.55923e+01
136.000      1.52247e+01
137.000      1.47796e+01
138.000      1.42652e+01
139.000      1.36957e+01
140.000      1.30930e+01
141.000      1.24858e+01
142.000      1.19064e+01
143.000      1.13846e+01
144.000      1.09418e+01
145.000      1.05863e+01
146.000      1.03124e+01
147.000      1.01030e+01
148.000      9.93465e+00
149.000      9.78386e+00
150.000      9.63159e+00
151.000      9.46524e+00
152.000      9.27779e+00
153.000      9.06513e+00
154.000      8.82327e+00
155.000      8.54709e+00
156.000      8.23140e+00
157.000      7.87387e+00
158.000      7.47858e+00
159.000      7.05857e+00
160.000      6.63605e+00
161.000      6.23986e+00
162.000      5.90055e+00
163.000      5.64414e+00
164.000      5.48584e+00
165.000      5.42535e+00
166.000      5.44506e+00
167.000      5.51201e+00
168.000      5.58376e+00
169.000      5.61715e+00
170.000      5.57803e+00
171.000      5.44948e+00
172.000      5.23630e+00
173.000      4.96432e+00
174.000      4.67454e+00
175.000      4.41341e+00
176.000      4.22191e+00
177.000      4.12643e+00
178.000      4.13400e+00
179.000      4.23325e+00
180.000      4.40033e+00
181.000      4.60759e+00
182.000      4.83151e+00
183.000      5.05717e+00
184.000      5.27804e+00
185.000      5.49193e+00
186.000      5.69559e+00
187.000      5.88098e+00
188.000      6.03499e+00
189.000      6.14269e+00
190.000      6.19260e+00
191.000      6.18172e+00
192.000      6.11817e+00
193.000      6.02076e+00
194.000      5.91566e+00
195.000      5.83119e+00
196.000      5.79220e+00
197.000      5.81501e+00
198.000      5.90410e+00
199.000      6.05137e+00
200.000      6.23832e+00
201.000      6.44124e+00
202.000      6.63827e+00
203.000      6.81660e+00
204.000      6.97772e+00
205.000      7.13836e+00
206.000      7.32637e+00
207.000      7.57170e+00
208.000      7.89483e+00
209.000      8.29622e+00
210.000      8.75076e+00
211.000      9.21013e+00
212.000      9.61319e+00
213.000      9.90179e+00
214.000      1.00368e+01
215.000      1.00092e+01
216.000      9.84168e+00
217.000      9.58217e+00
218.000      9.29059e+00
219.000      9.02470e+00
220.000      8.82902e+00
221.000      8.72923e+00
222.000      8.73184e+00
223.000      8.82729e+00
224.000      8.99440e+00
225.000      9.20453e+00
226.000      9.42541e+00
227.000      9.62470e+00
228.000      9.77366e+00
229.000      9.85060e+00
230.000      9.84341e+00
231.000      9.75040e+00
232.000      9.57936e+00
233.000      9.34535e+00
234.000      9.06816e+00
235.000      8.77042e+00
236.000      8.47618e+00
237.000      8.20975e+00
238.000      7.99361e+00
239.000      7.84530e+00
240.000      7.77351e+00
241.000      7.77499e+00
242.000      7.83348e+00
243.000      7.92173e+00
244.000      8.00640e+00
245.000      8.05448e+00
246.000      8.03952e+00
247.000      7.94601e+00
248.000      7.77091e+00
249.000      7.52263e+00
250.000      7.21807e+00
251.000      6.87906e+00
252.000      6.52908e+00
253.000      6.19048e+00
254.000      5.88207e+00
255.000      5.61657e+00
256.000      5.39798e+00
257.000      5.21947e+00
258.000      5.06305e+00
259.000      4.90203e+00
260.000      4.70640e+00
261.000      4.45017e+00
262.000      4.11858e+00
263.000      3.71288e+00
264.000      3.25123e+00
265.000      2.76528e+00
266.000      2.29364e+00
267.000      1.87374e+00
268.000      1.53451e+00
269.000      1.29104e+00
270.000      1.14254e+00
271.000      1.07354e+00
272.000      1.05795e+00
273.000      1.06510e+00
274.000      1.06632e+00
275.000      1.04060e+00
276.000      9.78149e-01
277.000      8.81168e-01
278.000      7.62011e-01
279.000      6.39663e-01
280.000      5.35795e-01
281.000      4.71437e-01
282.000      4.64724e-01
283.000      5.29482e-01
284.000      6.74093e-01
285.000      9.00186e-01
286.000      1.20131e+00
287.000      1.56233e+00
288.000      1.96061e+00
289.000      2.36976e+00
290.000      2.76566e+00
291.000      3.13341e+00
292.000      3.47288e+00
293.000      3.80047e+00
294.000      4.14572e+00
295.000      4.54300e+00
296.000      5.02044e+00
297.000      5.58963e+00
298.000      6.23934e+00
299.000      6.93561e+00
300.000      7.62819e+00
301.000      8.26141e+00
302.000      8.78619e+00
303.000      9.16980e+00
304.000      9.40123e+00
305.000      9.49152e+00
306.000      9.46980e+00
307.000      9.37694e+00
308.000      9.25844e+00
309.000      9.15791e+00
310.000      9.11209e+00
311.000      9.14763e+00
312.000      9.27988e+00
313.000      9.51372e+00
314.000      9.84582e+00
315.000      1.02680e+01
316.000      1.07701e+01
317.000      1.13429e+01
318.000      1.19787e+01
319.000      1.26719e+01
320.000      1.34196e+01
321.000      1.42221e+01
322.000      1.50832e+01
323.000      1.60104e+01
324.000      1.70119e+01
325.000      1.80924e+01
326.000      1.92471e+01
327.000      2.04571e+01
328.000      2.16879e+01
329.000      2.28924e+01
330.000      2.40187e+01
331.000      2.50190e+01
332.000      2.58585e+01
333.000      2.65216e+01
334.000      2.70129e+01
335.000      2.73554e+01
336.000      2.75841e+01
337.000      2.77389e+01
338.000      2.78577e+01
339.000      2.79696e+01
340.000      2.80915e+01
341.000      2.82268e+01
342.000      2.83684e+01
343.000      2.85024e+01
344.000      2.86148e+01
345.000      2.86956e+01
346.000      2.87402e+01
347.000      2.87478e+01
348.000      2.87164e+01
349.000      2.86368e+01
350.000      2.84893e+01
351.000      2.82429e+01
352.000      2.78592e+01
353.000      2.72992e+01
354.000      2.65316e+01
355.000      2.55399e+01
356.000      2.43269e+01
357.000      2.29167e+01
358.000      2.13521e+01
359.000      1.96905e+01
360.000      1.79966e+01
361.000      1.63352e+01
362.000      1.47637e+01
363.000      1.33250e+01
364.000      1.20443e+01
365.000      1.09273e+01
366.000      9.96344e+00
367.000      9.13055e+00
368.000      8.40223e+00
369.000      7.75455e+00
370.000      7.17150e+00
371.000      6.64763e+00
372.000      6.18769e+00
373.000      5.80369e+00
374.000      5.51079e+00
375.000      5.32343e+00
376.000      5.25319e+00
377.000      5.30881e+00
378.000      5.49774e+00
379.000      5.82783e+00
380.000      6.30761e+00
381.000      6.94428e+00
382.000      7.73946e+00
383.000      8.68407e+00
384.000      9.75408e+00
385.000      1.09089e+01
386.000      1.20929e+01
387.000      1.32404e+01
388.000      1.42816e+01
389.000      1.51484e+01
390.000      1.57793e+01
391.000      1.61229e+01
392.000      1.61407e+01
393.000      1.58115e+01
394.000      1.51360e+01
395.000      1.41410e+01
396.000      1.28818e+01
397.000      1.14394e+01
398.000      9.91314e+00
399.000      8.40815e+00
400.000      7.02127e+00
401.000      5.82844e+00
402.000      4.87629e+00
403.000      4.17942e+00
404.000      3.72301e+00
405.000      3.46914e+00
406.000      3.36467e+00
407.000      3.34934e+00
408.000      3.36314e+00
409.000      3.35299e+00
410.000      3.27864e+00
411.000      3.11725e+00
412.000      2.86589e+00
413.000      2.54074e+00
414.000      2.17294e+00
415.000      1.80158e+00
416.000      1.46549e+00
417.000      1.19574e+00
418.000      1.01021e+00
419.000      9.11440e-01
420.000      8.87396e-01
421.000      9.14984e-01
422.000      9.65269e-01
423.000      1.00943e+00
424.000      1.02426e+00
425.000      9.96135e-01
426.000      9.22530e-01
427.000      8.10896e-01
428.000      6.75398e-01
429.000      5.32613e-01
430.000      3.97511e-01
431.000      2.80728e-01
432.000      1.87577e-01
433.000      1.18580e-01
434.000      7.09207e-02
435.000      4.01287e-02
436.000      2.14812e-02
437.000      1.08787e-02
438.000      5.21217e-03
439.000      2.36252e-03
440.000      1.01310e-03
441.000      4.11001e-04
442.000      1.57744e-04
443.000      5.72772e-05
444.000      1.96756e-05
445.000      6.39426e-06
446.000      1.96594e-06
447.000      5.71833e-07
448.000      1.57357e-07
449.000      4.09656e-08
450.000      1.00895e-08
451.000      2.35092e-09
452.000      5.18233e-10
453.000      1.08076e-10
454.000      2.13231e-11
455.000      3.98006e-12
456.000      7.02824e-13
457.000      1.17414e-13
458.000      1.85572e-14
459.000      2.77474e-15
460.000      3.92509e-16
461.000      5.25284e-17
462.000      6.65054e-18
463.000      7.96593e-19
464.000      9.02681e-20
465.000      9.67719e-21
466.000      9.81482e-22
467.000      9.41743e-23
468.000      8.54871e-24
469.000      7.34152e-25
470.000      5.96471e-26
471.000      4.58469e-27
472.000      3.33387e-28
473.000      2.29353e-29
474.000      1.49272e-30
475.000      9.19113e-32
476.000      5.35399e-33
477.000      2.95056e-34
478.000      1.53833e-35
479.000      7.58769e-37
480.000      3.54070e-38
481.000      1.56310e-39
482.000      6.52830e-41
483.000      2.57948e-42
484.000      9.64232e-44
485.000      3.40996e-45
486.000      1.14086e-46
487.000      3.61107e-48
488.000      1.08132e-49
489.000      3.06333e-51
490.000      8.21010e-53
491.000      2.08172e-54
492.000      4.99358e-56
493.000      1.13323e-57
494.000      2.43302e-59
495.000      4.94184e-61
496.000      9.49619e-63
497.000      1.72635e-64
498.000      2.96909e-66
499.000      4.83100e-68
500.000      7.43650e-70
