# Gaussian folded, width=10 cm^-1
# [cm^-1] arbitrary
0.000      3.00000e+00
1.000      2.91796e+00
2.000      2.68508e+00
3.000      2.33749e+00
4.000      1.92514e+00
5.000      1.50000e+00
6.000      1.10570e+00
7.000      7.71085e-01
8.000      5.08727e-01
9.000      3.17530e-01
10.000      1.87500e-01
11.000      1.04746e-01
12.000      5.53609e-02
13.000      2.76860e-02
14.000      1.31145e-02
15.000      5.92532e-03
16.000      2.67418e-03
17.000      1.53143e-03
18.000      1.79314e-03
19.000      3.67110e-03
20.000      8.41132e-03
21.000      1.87731e-02
22.000      3.98771e-02
23.000      8.03487e-02
24.000      1.53507e-01
25.000      2.78086e-01
26.000      4.77713e-01
27.000      7.78258e-01
28.000      1.20249e+00
29.000      1.76227e+00
30.000      2.44975e+00
31.000      3.23035e+00
32.000      4.04086e+00
33.000      4.79523e+00
34.000      5.39839e+00
35.000      5.76555e+00
36.000      5.84170e+00
37.000      5.61504e+00
38.000      5.12005e+00
39.000      4.42887e+00
40.000      3.63426e+00
41.000      2.82941e+00
42.000      2.09107e+00
43.000      1.46984e+00
44.000      9.89050e-01
45.000      6.50437e-01
46.000      4.43604e-01
47.000      3.55651e-01
48.000      3.78494e-01
49.000      5.12311e-01
50.000      7.64665e-01
51.000      1.14562e+00
52.000      1.65996e+00
53.000      2.29832e+00
54.000      3.02992e+00
55.000      3.79972e+00
56.000      4.53204e+00
57.000      5.14138e+00
58.000      5.54817e+00
59.000      5.69569e+00
60.000      5.56297e+00
61.000      5.16980e+00
62.000      4.57211e+00
63.000      3.84949e+00
64.000      3.08883e+00
65.000      2.36902e+00
66.000      1.75072e+00
67.000      1.27282e+00
68.000      9.54932e-01
69.000      8.03259e-01
70.000      8.16652e-01
71.000      9.90354e-01
72.000      1.31619e+00
73.000      1.77975e+00
74.000      2.35629e+00
75.000      3.00800e+00
76.000      3.68458e+00
77.000      4.32836e+00
78.000      4.88330e+00
79.000      5.30605e+00
80.000      5.57609e+00
81.000      5.70225e+00
82.000      5.72339e+00
83.000      5.70273e+00
84.000      5.71665e+00
85.000      5.84066e+00
86.000      6.13571e+00
87.000      6.63840e+00
88.000      7.35707e+00
89.000      8.27395e+00
90.000      9.35114e+00
91.000      1.05374e+01
92.000      1.17732e+01
93.000      1.29924e+01
94.000      1.41230e+01
95.000      1.50886e+01
96.000      1.58131e+01
97.000      1.62295e+01
98.000      1.62899e+01
99.000      1.59764e+01
100.000      1.53070e+01
101.000      1.43359e+01
102.000      1.31484e+01
103.000      1.18498e+01
104.000      1.05520e+01
105.000      9.35991e+00
106.000      8.35906e+00
107.000      7.60864e+00
108.000      7.13933e+00
109.000      6.95659e+00
110.000      7.04787e+00
111.000      7.39106e+00
112.000      7.96144e+00
113.000      8.73482e+00
114.000      9.68632e+00
115.000      1.07858e+01
116.000      1.19925e+01
117.000      1.32521e+01
118.000      1.44973e+01
119.000      1.56549e+01
120.000      1.66544e+01
121.000      1.74395e+01
122.000      1.79762e+01
123.000      1.82567e+01
124.000      1.82985e+01
125.000      1.81373e+01
126.000      1.78190e+01
127.000      1.73905e+01
128.000      1.68928e+01
129.000      1.63573e+01
130.000      1.58062e+01
131.000      1.52537e+01
132.000      1.47095e+01
133.000      1.41811e+01
134.000      1.36752e+01
135.000      1.31979e+01
136.000      1.27538e+01
137.000      1.23453e+01
138.000      1.19713e+01
139.000      1.16278e+01
140.000      1.13088e+01
141.000      1.10075e+01
142.000      1.07183e+01
143.000      1.04378e+01
144.000      1.01649e+01
145.000      9.90115e+00
146.000      9.64838e+00
147.000      9.40730e+00
148.000      9.17524e+00
149.000      8.94502e+00
150.000      8.70543e+00
151.000      8.44351e+00
152.000      8.14827e+00
153.000      7.81443e+00
154.000      7.44491e+00
155.000      7.05093e+00
156.000      6.64971e+00
157.000      6.26058e+00
158.000      5.90065e+00
159.000      5.58137e+00
160.000      5.30686e+00
161.000      5.07409e+00
162.000      4.87460e+00
163.000      4.69703e+00
164.000      4.52962e+00
165.000      4.36214e+00
166.000      4.18717e+00
167.000      4.00048e+00
168.000      3.80117e+00
169.000      3.59150e+00
170.000      3.37682e+00
171.000      3.16563e+00
172.000      2.96964e+00
173.000      2.80393e+00
174.000      2.68662e+00
175.000      2.63789e+00
176.000      2.67798e+00
177.000      2.82415e+00
178.000      3.08704e+00
179.000      3.46737e+00
180.000      3.95390e+00
181.000      4.52372e+00
182.000      5.14529e+00
183.000      5.78384e+00
184.000      6.40795e+00
185.000      6.99563e+00
186.000      7.53783e+00
187.000      8.03848e+00
188.000      8.51079e+00
189.000      8.97112e+00
190.000      9.43267e+00
191.000      9.90080e+00
192.000      1.03714e+01
193.000      1.08325e+01
194.000      1.12679e+01
195.000      1.16620e+01
196.000      1.20042e+01
197.000      1.22912e+01
198.000      1.25284e+01
199.000      1.27286e+01
200.000      1.29090e+01
201.000      1.30868e+01
202.000      1.32746e+01
203.000      1.34762e+01
204.000      1.36843e+01
205.000      1.38804e+01
206.000      1.40383e+01
207.000      1.41286e+01
208.000      1.41252e+01
209.000      1.40098e+01
210.000      1.37766e+01
211.000      1.34330e+01
212.000      1.29997e+01
213.000      1.25102e+01
214.000      1.20079e+01
215.000      1.15443e+01
216.000      1.11738e+01
217.000      1.09483e+01
218.000      1.09091e+01
219.000      1.10801e+01
220.000      1.14621e+01
221.000      1.20323e+01
222.000      1.27472e+01
223.000      1.35503e+01
224.000      1.43806e+01
225.000      1.51811e+01
226.000      1.59044e+01
227.000      1.65154e+01
228.000      1.69913e+01
229.000      1.73211e+01
230.000      1.75038e+01
231.000      1.75475e+01
232.000      1.74676e+01
233.000      1.72849e+01
234.000      1.70220e+01
235.000      1.66996e+01
236.000      1.63339e+01
237.000      1.59343e+01
238.000      1.55052e+01
239.000      1.50485e+01
240.000      1.45689e+01
241.000      1.40777e+01
242.000      1.35948e+01
243.000      1.31480e+01
244.000      1.27674e+01
245.000      1.24788e+01
246.000      1.22952e+01
247.000      1.22112e+01
248.000      1.22010e+01
249.000      1.22226e+01
250.000      1.22249e+01
251.000      1.21591e+01
252.000      1.19878e+01
253.000      1.16934e+01
254.000      1.12803e+01
255.000      1.07732e+01
256.000      1.02110e+01
257.000      9.63836e+00
258.000      9.09772e+00
259.000      8.62303e+00
260.000      8.23659e+00
261.000      7.94835e+00
262.000      7.75677e+00
263.000      7.64983e+00
264.000      7.60587e+00
265.000      7.59467e+00
266.000      7.57996e+00
267.000      7.52390e+00
268.000      7.39313e+00
269.000      7.16476e+00
270.000      6.83007e+00
271.000      6.39467e+00
272.000      5.87523e+00
273.000      5.29424e+00
274.000      4.67532e+00
275.000      4.04044e+00
276.000      3.40957e+00
277.000      2.80165e+00
278.000      2.23545e+00
279.000      1.72938e+00
280.000      1.30013e+00
281.000      9.60954e-01
282.000      7.20588e-01
283.000      5.83059e-01
284.000      5.48151e-01
285.000      6.11709e-01
286.000      7.65176e-01
287.000      9.94383e-01
288.000      1.27841e+00
289.000      1.58970e+00
290.000      1.89640e+00
291.000      2.16685e+00
292.000      2.37539e+00
293.000      2.50747e+00
294.000      2.56257e+00
295.000      2.55399e+00
296.000      2.50573e+00
297.000      2.44760e+00
298.000      2.40970e+00
299.000      2.41744e+00
300.000      2.48750e+00
301.000      2.62532e+00
302.000      2.82459e+00
303.000      3.06953e+00
304.000      3.33993e+00
305.000      3.61823e+00
306.000      3.89652e+00
307.000      4.18101e+00
308.000      4.49163e+00
309.000      4.85616e+00
310.000      5.30036e+00
311.000      5.83720e+00
312.000      6.45924e+00
313.000      7.13717e+00
314.000      7.82551e+00
315.000      8.47397e+00
316.000      9.04070e+00
317.000      9.50311e+00
318.000      9.86289e+00
319.000      1.01442e+01
320.000      1.03864e+01
321.000      1.06339e+01
322.000      1.09271e+01
323.000      1.12963e+01
324.000      1.17593e+01
325.000      1.23222e+01
326.000      1.29827e+01
327.000      1.37332e+01
328.000      1.45627e+01
329.000      1.54578e+01
330.000      1.64015e+01
331.000      1.73720e+01
332.000      1.83431e+01
333.000      1.92860e+01
334.000      2.01741e+01
335.000      2.09887e+01
336.000      2.17240e+01
337.000      2.23880e+01
338.000      2.29986e+01
339.000      2.35755e+01
340.000      2.41291e+01
341.000      2.46520e+01
342.000      2.51148e+01
343.000      2.54689e+01
344.000      2.56565e+01
345.000      2.56234e+01
346.000      2.53317e+01
347.000      2.47683e+01
348.000      2.39461e+01
349.000      2.29003e+01
350.000      2.16803e+01
351.000      2.03413e+01
352.000      1.89379e+01
353.000      1.75201e+01
354.000      1.61315e+01
355.000      1.48091e+01
356.000      1.35830e+01
357.000      1.24762e+01
358.000      1.15050e+01
359.000      1.06790e+01
360.000      1.00013e+01
361.000      9.46684e+00
362.000      9.06168e+00
363.000      8.76126e+00
364.000      8.53152e+00
365.000      8.33281e+00
366.000      8.12642e+00
367.000      7.88195e+00
368.000      7.58282e+00
369.000      7.22760e+00
370.000      6.82691e+00
371.000      6.39735e+00
372.000      5.95576e+00
373.000      5.51652e+00
374.000      5.09322e+00
375.000      4.70346e+00
376.000      4.37369e+00
377.000      4.14094e+00
378.000      4.04935e+00
379.000      4.14168e+00
380.000      4.44845e+00
381.000      4.97758e+00
382.000      5.70796e+00
383.000      6.58842e+00
384.000      7.54263e+00
385.000      8.47907e+00
386.000      9.30417e+00
387.000      9.93603e+00
388.000      1.03161e+01
389.000      1.04164e+01
390.000      1.02405e+01
391.000      9.81879e+00
392.000      9.20015e+00
393.000      8.44183e+00
394.000      7.60081e+00
395.000      6.72797e+00
396.000      5.86545e+00
397.000      5.04637e+00
398.000      4.29575e+00
399.000      3.63138e+00
400.000      3.06409e+00
401.000      2.59723e+00
402.000      2.22593e+00
403.000      1.93727e+00
404.000      1.71175e+00
405.000      1.52672e+00
406.000      1.36066e+00
407.000      1.19744e+00
408.000      1.02897e+00
409.000      8.55388e-01
410.000      6.83128e-01
411.000      5.21498e-01
412.000      3.79248e-01
413.000      2.62125e-01
414.000      1.71923e-01
415.000      1.06895e-01
416.000      6.29626e-02
417.000      3.51167e-02
418.000      1.85405e-02
419.000      9.26447e-03
420.000      4.38079e-03
421.000      1.96011e-03
422.000      8.29807e-04
423.000      3.32374e-04
424.000      1.25955e-04
425.000      4.51587e-05
426.000      1.53177e-05
427.000      4.91554e-06
428.000      1.49235e-06
429.000      4.28638e-07
430.000      1.16475e-07
431.000      2.99427e-08
432.000      7.28231e-09
433.000      1.67558e-09
434.000      3.64737e-10
435.000      7.51125e-11
436.000      1.46340e-11
437.000      2.69731e-12
438.000      4.70344e-13
439.000      7.75924e-14
440.000      1.21099e-14
441.000      1.78804e-15
442.000      2.49767e-16
443.000      3.30072e-17
444.000      4.12667e-18
445.000      4.88100e-19
446.000      5.46179e-20
447.000      5.78202e-21
448.000      5.79084e-22
449.000      5.48682e-23
450.000      4.91833e-24
451.000      4.17092e-25
452.000      3.34630e-26
453.000      2.53989e-27
454.000      1.82382e-28
455.000      1.23899e-29
456.000      7.96286e-31
457.000      4.84161e-32
458.000      2.78501e-33
459.000      1.51559e-34
460.000      7.80289e-36
461.000      3.80055e-37
462.000      1.75127e-38
463.000      7.63449e-40
464.000      3.14864e-41
465.000      1.22853e-42
466.000      4.53485e-44
467.000      1.58365e-45
468.000      5.23206e-47
469.000      1.63533e-48
470.000      4.83564e-50
471.000      1.35276e-51
472.000      3.58018e-53
473.000      8.96409e-55
474.000      2.12337e-56
475.000      4.75842e-58
476.000      1.00883e-59
477.000      2.02344e-61
478.000      3.83954e-63
479.000      6.89265e-65
480.000      1.17061e-66
481.000      1.88085e-68
482.000      2.85900e-70
483.000      4.11142e-72
484.000      5.59355e-74
485.000      7.19947e-76
486.000      8.76660e-78
487.000      1.00990e-79
488.000      1.10064e-81
489.000      1.13482e-83
490.000      1.10695e-85
491.000      1.02152e-87
492.000      8.91835e-90
493.000      7.36611e-92
494.000      5.75585e-94
495.000      4.25499e-96
496.000      2.97581e-98
497.000     1.96893e-100
498.000     1.23246e-102
499.000     7.29845e-105
500.000     4.08891e-107
