# Gaussian folded, width=10 cm^-1
# [cm^-1] arbitrary
0.000      3.00000e+00
1.000      2.91796e+00
2.000      2.68508e+00
3.000      2.33749e+00
4.000      1.92514e+00
5.000      1.50000e+00
6.000      1.10570e+00
7.000      7.71085e-01
8.000      5.08727e-01
9.000      3.17531e-01
10.000      1.87506e-01
11.000      1.04764e-01
12.000      5.54175e-02
13.000      2.78543e-02
14.000      1.35882e-02
15.000      7.18636e-03
16.000      5.84874e-03
17.000      9.08693e-03
18.000      1.87893e-02
19.000      3.97960e-02
20.000      8.09297e-02
21.000      1.56192e-01
22.000      2.85527e-01
23.000      4.94231e-01
24.000      8.10010e-01
25.000      1.25698e+00
26.000      1.84691e+00
27.000      2.56948e+00
28.000      3.38478e+00
29.000      4.22186e+00
30.000      4.98619e+00
31.000      5.57604e+00
32.000      5.90445e+00
33.000      5.92018e+00
34.000      5.62091e+00
35.000      5.05404e+00
36.000      4.30481e+00
37.000      3.47628e+00
38.000      2.66795e+00
39.000      1.95967e+00
40.000      1.40463e+00
41.000      1.03131e+00
42.000      8.51064e-01
43.000      8.66803e-01
44.000      1.07819e+00
45.000      1.48121e+00
46.000      2.06218e+00
47.000      2.78907e+00
48.000      3.60450e+00
49.000      4.42513e+00
50.000      5.15016e+00
51.000      5.67847e+00
52.000      5.93006e+00
53.000      5.86516e+00
54.000      5.49412e+00
55.000      4.87482e+00
56.000      4.09817e+00
57.000      3.26714e+00
58.000      2.47622e+00
59.000      1.79721e+00
60.000      1.27448e+00
61.000      9.28496e-01
62.000      7.64392e-01
63.000      7.80776e-01
64.000      9.75191e-01
65.000      1.34427e+00
66.000      1.87900e+00
67.000      2.55767e+00
68.000      3.34017e+00
69.000      4.16761e+00
70.000      4.96958e+00
71.000      5.67856e+00
72.000      6.24775e+00
73.000      6.66643e+00
74.000      6.96654e+00
75.000      7.21717e+00
76.000      7.50772e+00
77.000      7.92508e+00
78.000      8.53254e+00
79.000      9.35703e+00
80.000      1.03877e+01
81.000      1.15835e+01
82.000      1.28847e+01
83.000      1.42215e+01
84.000      1.55179e+01
85.000      1.66907e+01
86.000      1.76497e+01
87.000      1.83033e+01
88.000      1.85714e+01
89.000      1.84042e+01
90.000      1.77983e+01
91.000      1.68046e+01
92.000      1.55235e+01
93.000      1.40870e+01
94.000      1.26372e+01
95.000      1.13042e+01
96.000      1.01938e+01
97.000      9.38297e+00
98.000      8.92164e+00
99.000      8.83642e+00
100.000      9.13199e+00
101.000      9.78996e+00
102.000      1.07670e+01
103.000      1.19951e+01
104.000      1.33866e+01
105.000      1.48425e+01
106.000      1.62623e+01
107.000      1.75540e+01
108.000      1.86405e+01
109.000      1.94646e+01
110.000      1.99926e+01
111.000      2.02172e+01
112.000      2.01601e+01
113.000      1.98709e+01
114.000      1.94215e+01
115.000      1.88939e+01
116.000      1.83641e+01
117.000      1.78852e+01
118.000      1.74769e+01
119.000      1.71234e+01
120.000      1.67838e+01
121.000      1.64106e+01
122.000      1.59698e+01
123.000      1.54565e+01
124.000      1.48991e+01
125.000      1.43506e+01
126.000      1.38709e+01
127.000      1.35053e+01
128.000      1.32677e+01
129.000      1.31327e+01
130.000      1.30399e+01
131.000      1.29076e+01
132.000      1.26529e+01
133.000      1.22120e+01
134.000      1.15546e+01
135.000      1.06907e+01
136.000      9.66671e+00
137.000      8.55463e+00
138.000      7.43659e+00
139.000      6.38899e+00
140.000      5.46992e+00
141.000      4.71176e+00
142.000      4.11952e+00
143.000      3.67414e+00
144.000      3.33950e+00
145.000      3.07142e+00
146.000      2.82711e+00
147.000      2.57327e+00
148.000      2.29133e+00
149.000      1.97897e+00
150.000      1.64780e+00
151.000      1.31825e+00
152.000      1.01362e+00
153.000      7.54986e-01
154.000      5.58491e-01
155.000      4.35246e-01
156.000      3.93124e-01
157.000      4.39231e-01
158.000      5.81722e-01
159.000      8.30120e-01
160.000      1.19392e+00
161.000      1.67985e+00
162.000      2.28840e+00
163.000      3.01044e+00
164.000      3.82449e+00
165.000      4.69580e+00
166.000      5.57807e+00
167.000      6.41949e+00
168.000      7.17337e+00
169.000      7.81217e+00
170.000      8.34104e+00
171.000      8.80511e+00
172.000      9.28499e+00
173.000      9.87849e+00
174.000      1.06718e+01
175.000      1.17092e+01
176.000      1.29710e+01
177.000      1.43707e+01
178.000      1.57712e+01
179.000      1.70178e+01
180.000      1.79761e+01
181.000      1.85652e+01
182.000      1.87751e+01
183.000      1.86658e+01
184.000      1.83485e+01
185.000      1.79543e+01
186.000      1.75990e+01
187.000      1.73528e+01
188.000      1.72246e+01
189.000      1.71674e+01
190.000      1.71038e+01
191.000      1.69671e+01
192.000      1.67432e+01
193.000      1.64977e+01
194.000      1.63775e+01
195.000      1.65807e+01
196.000      1.73034e+01
197.000      1.86777e+01
198.000      2.07207e+01
199.000      2.33121e+01
200.000      2.62067e+01
201.000      2.90809e+01
202.000      3.16008e+01
203.000      3.34919e+01
204.000      3.45931e+01
205.000      3.48796e+01
206.000      3.44513e+01
207.000      3.34915e+01
208.000      3.22086e+01
209.000      3.07796e+01
210.000      2.93128e+01
211.000      2.78387e+01
212.000      2.63303e+01
213.000      2.47422e+01
214.000      2.30496e+01
215.000      2.12716e+01
216.000      1.94687e+01
217.000      1.77193e+01
218.000      1.60869e+01
219.000      1.45969e+01
220.000      1.32335e+01
221.000      1.19572e+01
222.000      1.07362e+01
223.000      9.57581e+00
224.000      8.53363e+00
225.000      7.71617e+00
226.000      7.25673e+00
227.000      7.28342e+00
228.000      7.88595e+00
229.000      9.08981e+00
230.000      1.08432e+01
231.000      1.30195e+01
232.000      1.54342e+01
233.000      1.78751e+01
234.000      2.01389e+01
235.000      2.20678e+01
236.000      2.35781e+01
237.000      2.46728e+01
238.000      2.54344e+01
239.000      2.60001e+01
240.000      2.65238e+01
241.000      2.71373e+01
242.000      2.79200e+01
243.000      2.88850e+01
244.000      2.99846e+01
245.000      3.11288e+01
246.000      3.22081e+01
247.000      3.31115e+01
248.000      3.37354e+01
249.000      3.39849e+01
250.000      3.37741e+01
251.000      3.30322e+01
252.000      3.17176e+01
253.000      2.98347e+01
254.000      2.74470e+01
255.000      2.46768e+01
256.000      2.16902e+01
257.000      1.86694e+01
258.000      1.57827e+01
259.000      1.31598e+01
260.000      1.08802e+01
261.000      8.97353e+00
262.000      7.43033e+00
263.000      6.21742e+00
264.000      5.29241e+00
265.000      4.61526e+00
266.000      4.15604e+00
267.000      3.89943e+00
268.000      3.84671e+00
269.000      4.01535e+00
270.000      4.43527e+00
271.000      5.14119e+00
272.000      6.16050e+00
273.000      7.49847e+00
274.000      9.12343e+00
275.000      1.09566e+01
276.000      1.28702e+01
277.000      1.46975e+01
278.000      1.62527e+01
279.000      1.73595e+01
280.000      1.78806e+01
281.000      1.77418e+01
282.000      1.69461e+01
283.000      1.55724e+01
284.000      1.37616e+01
285.000      1.16922e+01
286.000      9.55153e+00
287.000      7.50940e+00
288.000      5.69813e+00
289.000      4.20233e+00
290.000      3.05824e+00
291.000      2.26062e+00
292.000      1.77392e+00
293.000      1.54465e+00
294.000      1.51215e+00
295.000      1.61663e+00
296.000      1.80399e+00
297.000      2.02806e+00
298.000      2.25116e+00
299.000      2.44413e+00
300.000      2.58674e+00
301.000      2.66872e+00
302.000      2.69110e+00
303.000      2.66666e+00
304.000      2.61837e+00
305.000      2.57527e+00
306.000      2.56614e+00
307.000      2.61271e+00
308.000      2.72434e+00
309.000      2.89585e+00
310.000      3.10913e+00
311.000      3.33770e+00
312.000      3.55273e+00
313.000      3.72848e+00
314.000      3.84597e+00
315.000      3.89435e+00
316.000      3.87040e+00
317.000      3.77698e+00
318.000      3.62122e+00
319.000      3.41287e+00
320.000      3.16292e+00
321.000      2.88245e+00
322.000      2.58175e+00
323.000      2.26986e+00
324.000      1.95483e+00
325.000      1.64427e+00
326.000      1.34597e+00
327.000      1.06804e+00
328.000      8.18266e-01
329.000      6.03019e-01
330.000      4.26034e-01
331.000      2.87739e-01
332.000      1.85344e-01
333.000      1.13649e-01
334.000      6.62399e-02
335.000      3.66559e-02
336.000      1.92424e-02
337.000      9.57577e-03
338.000      4.51513e-03
339.000      2.01643e-03
340.000      8.52682e-04
341.000      3.41342e-04
342.000      1.29337e-04
343.000      4.63799e-05
344.000      1.57389e-05
345.000      5.05390e-06
346.000      1.53555e-06
347.000      4.41438e-07
348.000      1.20069e-07
349.000      3.08987e-08
350.000      7.52294e-09
351.000      1.73288e-09
352.000      3.77643e-10
353.000      7.78610e-11
354.000      1.51874e-11
355.000      2.80266e-12
356.000      4.89303e-13
357.000      8.08178e-14
358.000      1.26286e-14
359.000      1.86691e-15
360.000      2.61103e-16
361.000      3.45476e-17
362.000      4.32456e-18
363.000      5.12134e-19
364.000      5.73779e-20
365.000      6.08167e-21
366.000      6.09845e-22
367.000      5.78540e-23
368.000      5.19236e-24
369.000      4.40874e-25
370.000      3.54146e-26
371.000      2.69133e-27
372.000      1.93495e-28
373.000      1.31610e-29
374.000      8.46890e-31
375.000      5.15564e-32
376.000      2.96931e-33
377.000      1.61788e-34
378.000      8.33978e-36
379.000      4.06706e-37
380.000      1.87639e-38
381.000      8.19002e-40
382.000      3.38192e-41
383.000      1.32117e-42
384.000      4.88286e-44
385.000      1.70728e-45
386.000      5.64748e-47
387.000      1.76735e-48
388.000      5.23246e-50
389.000      1.46557e-51
390.000      3.88353e-53
391.000      9.73563e-55
392.000      2.30897e-56
393.000      5.18073e-58
394.000      1.09972e-59
395.000      2.20846e-61
396.000      4.19579e-63
397.000      7.54148e-65
398.000      1.28238e-66
399.000      2.06298e-68
400.000      3.13971e-70
401.000      4.52068e-72
402.000      6.15792e-74
403.000      7.93565e-76
404.000      9.67494e-78
405.000      1.11592e-79
406.000      1.21768e-81
407.000      1.25705e-83
408.000      1.22769e-85
409.000      1.13434e-87
410.000      9.91547e-90
411.000      8.19979e-92
412.000      6.41519e-94
413.000      4.74825e-96
414.000      3.32488e-98
415.000     2.20260e-100
416.000     1.38042e-102
417.000     8.18478e-105
418.000     4.59112e-107
419.000     2.43640e-109
420.000     1.22320e-111
421.000     5.80981e-114
422.000     2.61062e-116
423.000     1.10980e-118
424.000     4.46337e-121
425.000     1.69824e-123
426.000     6.11296e-126
427.000     2.08172e-128
428.000     6.70672e-131
429.000     2.04417e-133
430.000     5.89440e-136
431.000     1.60798e-138
432.000     4.14992e-141
433.000     1.01325e-143
434.000     2.34051e-146
435.000     5.11471e-149
436.000     1.05743e-151
437.000     2.06822e-154
438.000     3.82703e-157
439.000     6.69952e-160
440.000     1.10954e-162
441.000     1.73844e-165
442.000     2.57688e-168
443.000     3.61366e-171
444.000     4.79421e-174
445.000     6.01734e-177
446.000     7.14512e-180
447.000     8.02662e-183
448.000     8.53047e-186
449.000     8.57691e-189
450.000     8.15843e-192
451.000     7.34175e-195
452.000     6.25043e-198
453.000     5.03429e-201
454.000     3.83605e-204
455.000     2.76534e-207
456.000     1.88595e-210
457.000     1.21682e-213
458.000     7.42753e-217
459.000     4.28922e-220
460.000     2.34331e-223
461.000     1.21115e-226
462.000     5.92223e-230
463.000     2.73962e-233
464.000     1.19898e-236
465.000     4.96422e-240
466.000     1.94450e-243
467.000     7.20582e-247
468.000     2.52625e-250
469.000     8.37887e-254
470.000     2.62914e-257
471.000     7.80474e-261
472.000     2.19190e-264
473.000     5.82373e-268
474.000     1.46386e-271
475.000     3.48109e-275
476.000     7.83155e-279
477.000     1.66686e-282
478.000     3.35635e-286
479.000     6.39371e-290
480.000     1.15228e-293
481.000     1.96462e-297
482.000     3.16896e-301
483.000     4.83585e-305
484.000     6.98147e-309
485.000     9.53538e-313
486.000     1.23210e-316
487.000     1.50641e-320
488.000      0.00000e+00
489.000      0.00000e+00
490.000      0.00000e+00
491.000      0.00000e+00
492.000      0.00000e+00
493.000      0.00000e+00
494.000      0.00000e+00
495.000      0.00000e+00
496.000      0.00000e+00
497.000      0.00000e+00
498.000      0.00000e+00
499.000      0.00000e+00
500.000      0.00000e+00
