# Gaussian folded, width=10 cm^-1
# [cm^-1] arbitrary
0.000      3.00000e+00
1.000      2.91796e+00
2.000      2.68508e+00
3.000      2.33749e+00
4.000      1.92514e+00
5.000      1.50000e+00
6.000      1.10570e+00
7.000      7.71085e-01
8.000      5.08727e-01
9.000      3.17529e-01
10.000      1.87500e-01
11.000      1.04746e-01
12.000      5.53590e-02
13.000      2.76795e-02
14.000      1.30933e-02
15.000      5.85969e-03
16.000      2.48186e-03
17.000      9.97732e-04
18.000      3.90351e-04
19.000      1.78976e-04
20.000      1.78236e-04
21.000      3.92361e-04
22.000      1.02445e-03
23.000      2.61068e-03
24.000      6.32408e-03
25.000      1.45184e-02
26.000      3.15782e-02
27.000      6.50746e-02
28.000      1.27060e-01
29.000      2.35070e-01
30.000      4.12098e-01
31.000      6.84598e-01
32.000      1.07776e+00
33.000      1.60797e+00
34.000      2.27362e+00
35.000      3.04690e+00
36.000      3.87003e+00
37.000      4.65904e+00
38.000      5.31638e+00
39.000      5.75019e+00
40.000      5.89525e+00
41.000      5.72902e+00
42.000      5.27741e+00
43.000      4.60812e+00
44.000      3.81408e+00
45.000      2.99236e+00
46.000      2.22533e+00
47.000      1.56865e+00
48.000      1.04815e+00
49.000      6.63997e-01
50.000      3.99158e-01
51.000      2.28636e-01
52.000      1.27054e-01
53.000      7.35896e-02
54.000      5.44623e-02
55.000      6.37776e-02
56.000      1.03550e-01
57.000      1.83340e-01
58.000      3.19395e-01
59.000      5.32767e-01
60.000      8.45738e-01
61.000      1.27624e+00
62.000      1.83071e+00
63.000      2.49690e+00
64.000      3.23886e+00
65.000      3.99682e+00
66.000      4.69323e+00
67.000      5.24514e+00
68.000      5.58016e+00
69.000      5.65189e+00
70.000      5.45049e+00
71.000      5.00489e+00
72.000      4.37629e+00
73.000      3.64483e+00
74.000      2.89380e+00
75.000      2.19572e+00
76.000      1.60380e+00
77.000      1.14971e+00
78.000      8.46923e-01
79.000      6.96878e-01
80.000      6.95104e-01
81.000      8.35040e-01
82.000      1.10851e+00
83.000      1.50332e+00
84.000      1.99951e+00
85.000      2.56646e+00
86.000      3.16250e+00
87.000      3.73801e+00
88.000      4.24154e+00
89.000      4.62757e+00
90.000      4.86382e+00
91.000      4.93674e+00
92.000      4.85412e+00
93.000      4.64487e+00
94.000      4.35652e+00
95.000      4.05094e+00
96.000      3.79839e+00
97.000      3.67003e+00
98.000      3.72874e+00
99.000      4.01926e+00
100.000      4.55919e+00
101.000      5.33354e+00
102.000      6.29500e+00
103.000      7.37110e+00
104.000      8.47734e+00
105.000      9.53281e+00
106.000      1.04740e+01
107.000      1.12630e+01
108.000      1.18872e+01
109.000      1.23534e+01
110.000      1.26772e+01
111.000      1.28739e+01
112.000      1.29523e+01
113.000      1.29134e+01
114.000      1.27524e+01
115.000      1.24623e+01
116.000      1.20382e+01
117.000      1.14807e+01
118.000      1.07991e+01
119.000      1.00147e+01
120.000      9.16244e+00
121.000      8.29168e+00
122.000      7.46327e+00
123.000      6.74418e+00
124.000      6.19947e+00
125.000      5.88341e+00
126.000      5.83128e+00
127.000      6.05361e+00
128.000      6.53393e+00
129.000      7.23073e+00
130.000      8.08373e+00
131.000      9.02372e+00
132.000      9.98410e+00
133.000      1.09114e+01
134.000      1.17720e+01
135.000      1.25520e+01
136.000      1.32526e+01
137.000      1.38795e+01
138.000      1.44345e+01
139.000      1.49080e+01
140.000      1.52792e+01
141.000      1.55192e+01
142.000      1.55989e+01
143.000      1.54969e+01
144.000      1.52056e+01
145.000      1.47349e+01
146.000      1.41121e+01
147.000      1.33796e+01
148.000      1.25890e+01
149.000      1.17954e+01
150.000      1.10506e+01
151.000      1.03987e+01
152.000      9.87241e+00
153.000      9.49205e+00
154.000      9.26536e+00
155.000      9.18835e+00
156.000      9.24627e+00
157.000      9.41442e+00
158.000      9.65906e+00
159.000      9.93858e+00
160.000      1.02055e+01
161.000      1.04099e+01
162.000      1.05044e+01
163.000      1.04506e+01
164.000      1.02253e+01
165.000      9.82450e+00
166.000      9.26416e+00
167.000      8.57602e+00
168.000      7.80027e+00
169.000      6.97732e+00
170.000      6.14168e+00
171.000      5.31983e+00
172.000      4.53239e+00
173.000      3.79864e+00
174.000      3.14122e+00
175.000      2.58843e+00
176.000      2.17358e+00
177.000      1.93143e+00
178.000      1.89295e+00
179.000      2.07967e+00
180.000      2.49834e+00
181.000      3.13694e+00
182.000      3.96232e+00
183.000      4.92046e+00
184.000      5.93969e+00
185.000      6.93703e+00
186.000      7.82706e+00
187.000      8.53201e+00
188.000      8.99153e+00
189.000      9.17049e+00
190.000      9.06340e+00
191.000      8.69470e+00
192.000      8.11481e+00
193.000      7.39228e+00
194.000      6.60371e+00
195.000      5.82291e+00
196.000      5.11152e+00
197.000      4.51236e+00
198.000      4.04647e+00
199.000      3.71348e+00
200.000      3.49469e+00
201.000      3.35807e+00
202.000      3.26428e+00
203.000      3.17310e+00
204.000      3.04982e+00
205.000      2.87056e+00
206.000      2.62569e+00
207.000      2.32046e+00
208.000      1.97270e+00
209.000      1.60798e+00
210.000      1.25356e+00
211.000      9.32878e-01
212.000      6.61709e-01
213.000      4.46846e-01
214.000      2.87004e-01
215.000      1.75195e-01
216.000      1.01576e-01
217.000      5.59077e-02
218.000      2.91996e-02
219.000      1.44661e-02
220.000      6.79619e-03
221.000      3.02696e-03
222.000      1.27784e-03
223.000      5.11208e-04
224.000      1.93773e-04
225.000      6.95830e-05
226.000      2.36684e-05
227.000      7.62504e-06
228.000      2.32637e-06
229.000      6.72104e-07
230.000      1.83858e-07
231.000      4.76192e-08
232.000      1.16763e-08
233.000      2.71037e-09
234.000      5.95560e-10
235.000      1.23872e-10
236.000      2.43865e-11
237.000      4.54401e-12
238.000      8.01353e-13
239.000      1.33748e-13
240.000      2.11260e-14
241.000      3.15793e-15
242.000      4.47014e-16
243.000      6.25029e-17
244.000      2.98677e-17
245.000      1.74587e-16
246.000      1.28018e-15
247.000      8.92569e-15
248.000      5.88797e-14
249.000      3.67458e-13
250.000      2.16955e-12
251.000      1.21185e-11
252.000      6.40392e-11
253.000      3.20157e-10
254.000      1.51425e-09
255.000      6.77568e-09
256.000      2.86832e-08
257.000      1.14874e-07
258.000      4.35250e-07
259.000      1.56019e-06
260.000      5.29107e-06
261.000      1.69761e-05
262.000      5.15304e-05
263.000      1.47990e-04
264.000      4.02114e-04
265.000      1.03379e-03
266.000      2.51480e-03
267.000      5.78888e-03
268.000      1.26111e-02
269.000      2.60043e-02
270.000      5.07662e-02
271.000      9.38623e-02
272.000      1.64441e-01
273.000      2.73180e-01
274.000      4.30791e-01
275.000      6.45835e-01
276.000      9.22450e-01
277.000      1.25897e+00
278.000      1.64835e+00
279.000      2.08074e+00
280.000      2.54731e+00
281.000      3.04336e+00
282.000      3.56839e+00
283.000      4.12181e+00
284.000      4.69524e+00
285.000      5.26484e+00
286.000      5.78853e+00
287.000      6.21169e+00
288.000      6.48180e+00
289.000      6.56834e+00
290.000      6.48073e+00
291.000      6.27734e+00
292.000      6.06081e+00
293.000      5.96004e+00
294.000      6.10334e+00
295.000      6.59020e+00
296.000      7.46855e+00
297.000      8.72278e+00
298.000      1.02738e+01
299.000      1.19899e+01
300.000      1.37055e+01
301.000      1.52439e+01
302.000      1.64410e+01
303.000      1.71680e+01
304.000      1.73501e+01
305.000      1.69799e+01
306.000      1.61231e+01
307.000      1.49131e+01
308.000      1.35346e+01
309.000      1.21964e+01
310.000      1.10968e+01
311.000      1.03890e+01
312.000      1.01523e+01
313.000      1.03767e+01
314.000      1.09651e+01
315.000      1.17545e+01
316.000      1.25514e+01
317.000      1.31767e+01
318.000      1.35087e+01
319.000      1.35164e+01
320.000      1.32744e+01
321.000      1.29552e+01
322.000      1.28003e+01
323.000      1.30755e+01
324.000      1.40177e+01
325.000      1.57874e+01
326.000      1.84317e+01
327.000      2.18696e+01
328.000      2.58982e+01
329.000      3.02206e+01
330.000      3.44886e+01
331.000      3.83525e+01
332.000      4.15070e+01
333.000      4.37272e+01
334.000      4.48893e+01
335.000      4.49750e+01
336.000      4.40628e+01
337.000      4.23100e+01
338.000      3.99305e+01
339.000      3.71688e+01
340.000      3.42752e+01
341.000      3.14819e+01
342.000      2.89850e+01
343.000      2.69332e+01
344.000      2.54265e+01
345.000      2.45195e+01
346.000      2.42286e+01
347.000      2.45350e+01
348.000      2.53834e+01
349.000      2.66776e+01
350.000      2.82790e+01
351.000      3.00130e+01
352.000      3.16857e+01
353.000      3.31077e+01
354.000      3.41185e+01
355.000      3.46028e+01
356.000      3.44965e+01
357.000      3.37833e+01
358.000      3.24853e+01
359.000      3.06561e+01
360.000      2.83763e+01
361.000      2.57518e+01
362.000      2.29115e+01
363.000      1.99997e+01
364.000      1.71632e+01
365.000      1.45335e+01
366.000      1.22105e+01
367.000      1.02502e+01
368.000      8.66294e+00
369.000      7.42075e+00
370.000      6.47212e+00
371.000      5.75990e+00
372.000      5.23643e+00
373.000      4.87212e+00
374.000      4.65601e+00
375.000      4.59020e+00
376.000      4.68188e+00
377.000      4.93724e+00
378.000      5.36004e+00
379.000      5.95460e+00
380.000      6.72985e+00
381.000      7.70009e+00
382.000      8.87917e+00
383.000      1.02683e+01
384.000      1.18423e+01
385.000      1.35409e+01
386.000      1.52720e+01
387.000      1.69271e+01
388.000      1.84052e+01
389.000      1.96351e+01
390.000      2.05870e+01
391.000      2.12694e+01
392.000      2.17119e+01
393.000      2.19434e+01
394.000      2.19740e+01
395.000      2.17882e+01
396.000      2.13508e+01
397.000      2.06216e+01
398.000      1.95734e+01
399.000      1.82066e+01
400.000      1.65574e+01
401.000      1.46972e+01
402.000      1.27245e+01
403.000      1.07514e+01
404.000      8.88740e+00
405.000      7.22445e+00
406.000      5.82668e+00
407.000      4.72563e+00
408.000      3.92187e+00
409.000      3.39105e+00
410.000      3.09235e+00
411.000      2.97681e+00
412.000      2.99419e+00
413.000      3.09747e+00
414.000      3.24524e+00
415.000      3.40220e+00
416.000      3.53869e+00
417.000      3.62991e+00
418.000      3.65570e+00
419.000      3.60117e+00
420.000      3.45823e+00
421.000      3.22737e+00
422.000      2.91899e+00
423.000      2.55313e+00
424.000      2.15750e+00
425.000      1.76385e+00
426.000      1.40339e+00
427.000      1.10243e+00
428.000      8.79034e-01
429.000      7.41042e-01
430.000      6.85624e-01
431.000      7.00099e-01
432.000      7.63857e-01
433.000      8.51299e-01
434.000      9.35655e-01
435.000      9.93251e-01
436.000      1.00744e+00
437.000      9.71221e-01
438.000      8.87720e-01
439.000      7.68405e-01
440.000      6.29545e-01
441.000      4.88064e-01
442.000      3.58005e-01
443.000      2.48450e-01
444.000      1.63124e-01
445.000      1.01325e-01
446.000      5.95439e-02
447.000      3.31036e-02
448.000      1.74113e-02
449.000      8.66377e-03
450.000      4.07849e-03
451.000      1.81639e-03
452.000      7.65308e-04
453.000      3.05057e-04
454.000      1.15039e-04
455.000      4.10416e-05
456.000      1.38523e-05
457.000      4.42321e-06
458.000      1.33620e-06
459.000      3.81875e-07
460.000      1.03250e-07
461.000      2.64104e-08
462.000      6.39115e-09
463.000      1.46319e-09
464.000      3.16912e-10
465.000      6.49374e-11
466.000      1.25883e-11
467.000      2.30866e-12
468.000      4.00562e-13
469.000      6.57500e-14
470.000      1.02103e-14
471.000      1.50004e-15
472.000      2.08488e-16
473.000      2.74144e-17
474.000      3.41030e-18
475.000      4.01352e-19
476.000      4.46864e-20
477.000      4.70699e-21
478.000      4.69059e-22
479.000      4.42212e-23
480.000      3.94413e-24
481.000      3.32804e-25
482.000      2.65671e-26
483.000      2.00640e-27
484.000      1.43353e-28
485.000      9.68983e-30
486.000      6.19644e-31
487.000      3.74874e-32
488.000      2.14559e-33
489.000      1.16178e-34
490.000      5.95143e-36
491.000      2.88427e-37
492.000      1.32241e-38
493.000      5.73609e-40
494.000      2.35387e-41
495.000      9.13833e-43
496.000      3.35636e-44
497.000      1.16624e-45
498.000      3.83376e-47
499.000      1.19228e-48
500.000      3.50794e-50
