# Gaussian folded, width=10 cm^-1
# [cm^-1] arbitrary
0.000      3.00000e+00
1.000      2.91796e+00
2.000      2.68508e+00
3.000      2.33749e+00
4.000      1.92514e+00
5.000      1.50000e+00
6.000      1.10570e+00
7.000      7.71085e-01
8.000      5.08727e-01
9.000      3.17530e-01
10.000      1.87500e-01
11.000      1.04746e-01
12.000      5.53609e-02
13.000      2.76860e-02
14.000      1.31144e-02
15.000      5.92510e-03
16.000      2.67398e-03
17.000      1.53204e-03
18.000      1.79755e-03
19.000      3.68836e-03
20.000      8.46500e-03
21.000      1.89178e-02
22.000      4.02262e-02
23.000      8.11154e-02
24.000      1.55052e-01
25.000      2.80958e-01
26.000      4.82646e-01
27.000      7.86101e-01
28.000      1.21402e+00
29.000      1.77790e+00
30.000      2.46922e+00
31.000      3.25246e+00
32.000      4.06344e+00
33.000      4.81538e+00
34.000      5.41309e+00
35.000      5.77238e+00
36.000      5.83948e+00
37.000      5.60417e+00
38.000      5.10239e+00
39.000      4.40726e+00
40.000      3.61176e+00
41.000      2.80870e+00
42.000      2.07403e+00
43.000      1.45755e+00
44.000      9.81971e-01
45.000      6.48873e-01
46.000      4.47995e-01
47.000      3.66711e-01
48.000      3.96992e-01
49.000      5.38479e-01
50.000      7.97321e-01
51.000      1.18129e+00
52.000      1.69237e+00
53.000      2.31886e+00
54.000      3.02919e+00
55.000      3.77008e+00
56.000      4.47053e+00
57.000      5.05176e+00
58.000      5.44121e+00
59.000      5.58716e+00
60.000      5.46985e+00
61.000      5.10587e+00
62.000      4.54461e+00
63.000      3.85778e+00
64.000      3.12546e+00
65.000      2.42245e+00
66.000      1.80855e+00
67.000      1.32452e+00
68.000      9.93446e-01
69.000      8.25596e-01
70.000      8.23870e-01
71.000      9.87311e-01
72.000      1.31115e+00
73.000      1.78347e+00
74.000      2.38022e+00
75.000      3.06129e+00
76.000      3.77049e+00
77.000      4.44129e+00
78.000      5.00813e+00
79.000      5.42102e+00
80.000      5.65924e+00
81.000      5.73998e+00
82.000      5.71862e+00
83.000      5.67972e+00
84.000      5.72071e+00
85.000      5.93185e+00
86.000      6.37733e+00
87.000      7.08187e+00
88.000      8.02574e+00
89.000      9.14889e+00
90.000      1.03629e+01
91.000      1.15674e+01
92.000      1.26666e+01
93.000      1.35832e+01
94.000      1.42656e+01
95.000      1.46895e+01
96.000      1.48544e+01
97.000      1.47767e+01
98.000      1.44834e+01
99.000      1.40064e+01
100.000      1.33807e+01
101.000      1.26429e+01
102.000      1.18325e+01
103.000      1.09916e+01
104.000      1.01641e+01
105.000      9.39485e+00
106.000      8.72723e+00
107.000      8.20235e+00
108.000      7.85796e+00
109.000      7.72732e+00
110.000      7.83718e+00
111.000      8.20448e+00
112.000      8.83193e+00
113.000      9.70360e+00
114.000      1.07818e+01
115.000      1.20067e+01
116.000      1.32995e+01
117.000      1.45691e+01
118.000      1.57223e+01
119.000      1.66753e+01
120.000      1.73650e+01
121.000      1.77569e+01
122.000      1.78498e+01
123.000      1.76735e+01
124.000      1.72835e+01
125.000      1.67504e+01
126.000      1.61488e+01
127.000      1.55470e+01
128.000      1.49988e+01
129.000      1.45395e+01
130.000      1.41851e+01
131.000      1.39347e+01
132.000      1.37747e+01
133.000      1.36826e+01
134.000      1.36310e+01
135.000      1.35896e+01
136.000      1.35278e+01
137.000      1.34162e+01
138.000      1.32300e+01
139.000      1.29521e+01
140.000      1.25767e+01
141.000      1.21101e+01
142.000      1.15703e+01
143.000      1.09833e+01
144.000      1.03771e+01
145.000      9.77634e+00
146.000      9.19735e+00
147.000      8.64582e+00
148.000      8.11692e+00
149.000      7.59797e+00
150.000      7.07314e+00
151.000      6.52945e+00
152.000      5.96279e+00
153.000      5.38241e+00
154.000      4.81227e+00
155.000      4.28819e+00
156.000      3.85123e+00
157.000      3.53861e+00
158.000      3.37481e+00
159.000      3.36521e+00
160.000      3.49399e+00
161.000      3.72660e+00
162.000      4.01601e+00
163.000      4.31099e+00
164.000      4.56453e+00
165.000      4.74113e+00
166.000      4.82181e+00
167.000      4.80669e+00
168.000      4.71475e+00
169.000      4.58078e+00
170.000      4.44954e+00
171.000      4.36749e+00
172.000      4.37327e+00
173.000      4.48871e+00
174.000      4.71283e+00
175.000      5.02113e+00
176.000      5.37133e+00
177.000      5.71473e+00
178.000      6.01029e+00
179.000      6.23683e+00
180.000      6.39937e+00
181.000      6.52694e+00
182.000      6.66287e+00
183.000      6.85080e+00
184.000      7.12171e+00
185.000      7.48603e+00
186.000      7.93308e+00
187.000      8.43692e+00
188.000      8.96535e+00
189.000      9.48842e+00
190.000      9.98342e+00
191.000      1.04356e+01
192.000      1.08358e+01
193.000      1.11768e+01
194.000      1.14518e+01
195.000      1.16544e+01
196.000      1.17825e+01
197.000      1.18411e+01
198.000      1.18456e+01
199.000      1.18210e+01
200.000      1.17982e+01
201.000      1.18077e+01
202.000      1.18722e+01
203.000      1.20015e+01
204.000      1.21901e+01
205.000      1.24194e+01
206.000      1.26631e+01
207.000      1.28951e+01
208.000      1.30955e+01
209.000      1.32552e+01
210.000      1.33757e+01
211.000      1.34666e+01
212.000      1.35405e+01
213.000      1.36089e+01
214.000      1.36795e+01
215.000      1.37550e+01
216.000      1.38345e+01
217.000      1.39148e+01
218.000      1.39930e+01
219.000      1.40676e+01
220.000      1.41407e+01
221.000      1.42179e+01
222.000      1.43092e+01
223.000      1.44269e+01
224.000      1.45837e+01
225.000      1.47888e+01
226.000      1.50445e+01
227.000      1.53430e+01
228.000      1.56661e+01
229.000      1.59860e+01
230.000      1.62698e+01
231.000      1.64847e+01
232.000      1.66056e+01
233.000      1.66198e+01
234.000      1.65317e+01
235.000      1.63615e+01
236.000      1.61411e+01
237.000      1.59064e+01
238.000      1.56885e+01
239.000      1.55058e+01
240.000      1.53610e+01
241.000      1.52417e+01
242.000      1.51268e+01
243.000      1.49940e+01
244.000      1.48273e+01
245.000      1.46212e+01
246.000      1.43793e+01
247.000      1.41099e+01
248.000      1.38183e+01
249.000      1.35011e+01
250.000      1.31444e+01
251.000      1.27273e+01
252.000      1.22298e+01
253.000      1.16429e+01
254.000      1.09758e+01
255.000      1.02587e+01
256.000      9.53733e+00
257.000      8.86212e+00
258.000      8.27521e+00
259.000      7.79907e+00
260.000      7.43114e+00
261.000      7.14593e+00
262.000      6.90345e+00
263.000      6.66081e+00
264.000      6.38309e+00
265.000      6.05036e+00
266.000      5.65938e+00
267.000      5.22049e+00
268.000      4.75165e+00
269.000      4.27212e+00
270.000      3.79792e+00
271.000      3.34008e+00
272.000      2.90567e+00
273.000      2.50036e+00
274.000      2.13108e+00
275.000      1.80723e+00
276.000      1.53974e+00
277.000      1.33840e+00
278.000      1.20852e+00
279.000      1.14843e+00
280.000      1.14916e+00
281.000      1.19678e+00
282.000      1.27663e+00
283.000      1.37799e+00
284.000      1.49738e+00
285.000      1.63885e+00
286.000      1.81138e+00
287.000      2.02411e+00
288.000      2.28150e+00
289.000      2.58015e+00
290.000      2.90836e+00
291.000      3.24801e+00
292.000      3.57791e+00
293.000      3.87711e+00
294.000      4.12761e+00
295.000      4.31639e+00
296.000      4.43681e+00
297.000      4.48955e+00
298.000      4.48245e+00
299.000      4.42889e+00
300.000      4.34476e+00
301.000      4.24500e+00
302.000      4.14129e+00
303.000      4.04220e+00
304.000      3.95572e+00
305.000      3.89298e+00
306.000      3.87087e+00
307.000      3.91175e+00
308.000      4.03948e+00
309.000      4.27307e+00
310.000      4.62026e+00
311.000      5.07379e+00
312.000      5.61212e+00
313.000      6.20470e+00
314.000      6.82004e+00
315.000      7.43384e+00
316.000      8.03445e+00
317.000      8.62380e+00
318.000      9.21400e+00
319.000      9.82101e+00
320.000      1.04577e+01
321.000      1.11287e+01
322.000      1.18286e+01
323.000      1.25434e+01
324.000      1.32544e+01
325.000      1.39438e+01
326.000      1.45988e+01
327.000      1.52152e+01
328.000      1.57983e+01
329.000      1.63615e+01
330.000      1.69239e+01
331.000      1.75059e+01
332.000      1.81249e+01
333.000      1.87910e+01
334.000      1.95036e+01
335.000      2.02505e+01
336.000      2.10077e+01
337.000      2.17430e+01
338.000      2.24203e+01
339.000      2.30047e+01
340.000      2.34677e+01
341.000      2.37894e+01
342.000      2.39586e+01
343.000      2.39715e+01
344.000      2.38282e+01
345.000      2.35312e+01
346.000      2.30839e+01
347.000      2.24915e+01
348.000      2.17626e+01
349.000      2.09110e+01
350.000      1.99571e+01
351.000      1.89290e+01
352.000      1.78619e+01
353.000      1.67969e+01
354.000      1.57776e+01
355.000      1.48448e+01
356.000      1.40298e+01
357.000      1.33486e+01
358.000      1.27974e+01
359.000      1.23535e+01
360.000      1.19796e+01
361.000      1.16322e+01
362.000      1.12714e+01
363.000      1.08691e+01
364.000      1.04132e+01
365.000      9.90736e+00
366.000      9.36639e+00
367.000      8.80918e+00
368.000      8.25220e+00
369.000      7.70542e+00
370.000      7.17191e+00
371.000      6.65070e+00
372.000      6.14142e+00
373.000      5.64830e+00
374.000      5.18184e+00
375.000      4.75763e+00
376.000      4.39345e+00
377.000      4.10636e+00
378.000      3.91149e+00
379.000      3.82271e+00
380.000      3.85407e+00
381.000      4.01997e+00
382.000      4.33247e+00
383.000      4.79580e+00
384.000      5.39938e+00
385.000      6.11239e+00
386.000      6.88218e+00
387.000      7.63839e+00
388.000      8.30230e+00
389.000      8.79950e+00
390.000      9.07278e+00
391.000      9.09191e+00
392.000      8.85794e+00
393.000      8.40104e+00
394.000      7.77298e+00
395.000      7.03632e+00
396.000      6.25338e+00
397.000      5.47736e+00
398.000      4.74715e+00
399.000      4.08609e+00
400.000      3.50403e+00
401.000      3.00146e+00
402.000      2.57409e+00
403.000      2.21676e+00
404.000      1.92541e+00
405.000      1.69704e+00
406.000      1.52774e+00
407.000      1.41028e+00
408.000      1.33241e+00
409.000      1.27720e+00
410.000      1.22562e+00
411.000      1.16052e+00
412.000      1.07066e+00
413.000      9.53056e-01
414.000      8.12951e-01
415.000      6.61426e-01
416.000      5.11757e-01
417.000      3.75818e-01
418.000      2.61635e-01
419.000      1.72540e-01
420.000      1.07733e-01
421.000      6.36710e-02
422.000      3.56115e-02
423.000      1.88471e-02
424.000      9.43773e-03
425.000      4.47140e-03
426.000      2.00428e-03
427.000      8.49969e-04
428.000      3.41016e-04
429.000      1.29440e-04
430.000      4.64819e-05
431.000      1.57913e-05
432.000      5.07543e-06
433.000      1.54328e-06
434.000      4.43951e-07
435.000      1.20821e-07
436.000      3.11078e-08
437.000      7.57728e-09
438.000      1.74612e-09
439.000      3.80674e-10
440.000      7.85146e-11
441.000      1.53202e-11
442.000      2.82811e-12
443.000      4.93909e-13
444.000      8.16044e-14
445.000      1.27555e-14
446.000      1.88626e-15
447.000      2.63889e-16
448.000      3.49268e-17
449.000      4.37335e-18
450.000      5.18068e-19
451.000      5.80600e-20
452.000      6.15581e-21
453.000      6.17463e-22
454.000      5.85941e-23
455.000      5.26035e-24
456.000      4.46779e-25
457.000      3.58996e-26
458.000      2.72900e-27
459.000      1.96261e-28
460.000      1.33531e-29
461.000      8.59507e-31
462.000      5.23400e-32
463.000      3.01533e-33
464.000      1.64344e-34
465.000      8.47405e-36
466.000      4.13376e-37
467.000      1.90773e-38
468.000      8.32927e-40
469.000      3.44044e-41
470.000      1.34443e-42
471.000      4.97029e-44
472.000      1.73837e-45
473.000      5.75200e-47
474.000      1.80059e-48
475.000      5.33246e-50
476.000      1.49402e-51
477.000      3.96010e-53
478.000      9.93051e-55
479.000      2.35589e-56
480.000      5.28756e-58
481.000      1.12273e-59
482.000      2.25533e-61
483.000      4.28611e-63
484.000      7.70610e-65
485.000      1.31076e-66
486.000      2.10926e-68
487.000      3.21110e-70
488.000      4.62483e-72
489.000      6.30166e-74
490.000      8.12329e-76
491.000      9.90664e-78
492.000      1.14298e-79
493.000      1.24758e-81
494.000      1.28829e-83
495.000      1.25858e-85
496.000      1.16322e-87
497.000      1.01710e-89
498.000      8.41357e-92
499.000      6.58439e-94
500.000      4.87493e-96
