# Gaussian folded, width=10 cm^-1
# [cm^-1] arbitrary
0.000      3.00000e+00
1.000      2.91796e+00
2.000      2.68508e+00
3.000      2.33749e+00
4.000      1.92514e+00
5.000      1.50000e+00
6.000      1.10570e+00
7.000      7.71085e-01
8.000      5.08727e-01
9.000      3.17530e-01
10.000      1.87500e-01
11.000      1.04746e-01
12.000      5.53609e-02
13.000      2.76861e-02
14.000      1.31146e-02
15.000      5.92543e-03
16.000      2.67430e-03
17.000      1.53140e-03
18.000      1.79248e-03
19.000      3.66887e-03
20.000      8.40651e-03
21.000      1.87671e-02
22.000      3.98812e-02
23.000      8.04021e-02
24.000      1.53711e-01
25.000      2.78658e-01
26.000      4.79055e-01
27.000      7.81022e-01
28.000      1.20759e+00
29.000      1.77078e+00
30.000      2.46267e+00
31.000      3.24825e+00
32.000      4.06346e+00
33.000      4.82106e+00
34.000      5.42478e+00
35.000      5.78903e+00
36.000      5.85869e+00
37.000      5.62278e+00
38.000      5.11730e+00
39.000      4.41625e+00
40.000      3.61399e+00
41.000      2.80471e+00
42.000      2.06524e+00
43.000      1.44551e+00
44.000      9.67678e-01
45.000      6.32203e-01
46.000      4.27572e-01
47.000      3.40151e-01
48.000      3.61623e-01
49.000      4.92499e-01
50.000      7.41278e-01
51.000      1.11951e+00
52.000      1.63378e+00
53.000      2.27645e+00
54.000      3.01779e+00
55.000      3.80252e+00
56.000      4.55316e+00
57.000      5.18098e+00
58.000      5.60249e+00
59.000      5.75748e+00
60.000      5.62306e+00
61.000      5.21925e+00
62.000      4.60433e+00
63.000      3.86154e+00
64.000      3.08154e+00
65.000      2.34601e+00
66.000      1.71685e+00
67.000      1.23278e+00
68.000      9.12552e-01
69.000      7.61915e-01
70.000      7.80621e-01
71.000      9.66625e-01
72.000      1.31584e+00
73.000      1.81788e+00
74.000      2.44977e+00
75.000      3.17080e+00
76.000      3.92164e+00
77.000      4.62992e+00
78.000      5.22214e+00
79.000      5.63968e+00
80.000      5.85451e+00
81.000      5.87987e+00
82.000      5.77175e+00
83.000      5.62014e+00
84.000      5.53124e+00
85.000      5.60519e+00
86.000      5.91502e+00
87.000      6.49234e+00
88.000      7.32327e+00
89.000      8.35535e+00
90.000      9.51237e+00
91.000      1.07120e+01
92.000      1.18809e+01
93.000      1.29619e+01
94.000      1.39140e+01
95.000      1.47056e+01
96.000      1.53061e+01
97.000      1.56810e+01
98.000      1.57930e+01
99.000      1.56099e+01
100.000      1.51166e+01
101.000      1.43267e+01
102.000      1.32884e+01
103.000      1.20831e+01
104.000      1.08138e+01
105.000      9.58961e+00
106.000      8.50730e+00
107.000      7.63847e+00
108.000      7.02410e+00
109.000      6.67825e+00
110.000      6.59818e+00
111.000      6.77622e+00
112.000      7.20796e+00
113.000      7.89338e+00
114.000      8.83040e+00
115.000      1.00039e+01
116.000      1.13755e+01
117.000      1.28782e+01
118.000      1.44200e+01
119.000      1.58945e+01
120.000      1.71967e+01
121.000      1.82389e+01
122.000      1.89628e+01
123.000      1.93451e+01
124.000      1.93967e+01
125.000      1.91561e+01
126.000      1.86802e+01
127.000      1.80344e+01
128.000      1.72838e+01
129.000      1.64881e+01
130.000      1.56975e+01
131.000      1.49515e+01
132.000      1.42784e+01
133.000      1.36949e+01
134.000      1.32063e+01
135.000      1.28068e+01
136.000      1.24812e+01
137.000      1.22066e+01
138.000      1.19563e+01
139.000      1.17035e+01
140.000      1.14242e+01
141.000      1.11011e+01
142.000      1.07254e+01
143.000      1.02981e+01
144.000      9.82926e+00
145.000      9.33725e+00
146.000      8.84559e+00
147.000      8.37986e+00
148.000      7.96417e+00
149.000      7.61791e+00
150.000      7.35329e+00
151.000      7.17372e+00
152.000      7.07340e+00
153.000      7.03818e+00
154.000      7.04775e+00
155.000      7.07891e+00
156.000      7.10932e+00
157.000      7.12095e+00
158.000      7.10217e+00
159.000      7.04773e+00
160.000      6.95673e+00
161.000      6.82916e+00
162.000      6.66269e+00
163.000      6.45102e+00
164.000      6.18487e+00
165.000      5.85513e+00
166.000      5.45706e+00
167.000      4.99373e+00
168.000      4.47740e+00
169.000      3.92874e+00
170.000      3.37440e+00
171.000      2.84419e+00
172.000      2.36883e+00
173.000      1.97832e+00
174.000      1.70085e+00
175.000      1.56154e+00
176.000      1.58055e+00
177.000      1.77064e+00
178.000      2.13460e+00
179.000      2.66321e+00
180.000      3.33456e+00
181.000      4.11554e+00
182.000      4.96544e+00
183.000      5.84149e+00
184.000      6.70498e+00
185.000      7.52673e+00
186.000      8.29031e+00
187.000      8.99201e+00
188.000      9.63778e+00
189.000      1.02380e+01
190.000      1.08014e+01
191.000      1.13307e+01
192.000      1.18205e+01
193.000      1.22583e+01
194.000      1.26294e+01
195.000      1.29227e+01
196.000      1.31379e+01
197.000      1.32887e+01
198.000      1.34037e+01
199.000      1.35210e+01
200.000      1.36796e+01
201.000      1.39085e+01
202.000      1.42178e+01
203.000      1.45947e+01
204.000      1.50063e+01
205.000      1.54078e+01
206.000      1.57551e+01
207.000      1.60151e+01
208.000      1.61738e+01
209.000      1.62355e+01
210.000      1.62188e+01
211.000      1.61466e+01
212.000      1.60383e+01
213.000      1.59042e+01
214.000      1.57441e+01
215.000      1.55515e+01
216.000      1.53187e+01
217.000      1.50429e+01
218.000      1.47308e+01
219.000      1.43996e+01
220.000      1.40754e+01
221.000      1.37896e+01
222.000      1.35734e+01
223.000      1.34519e+01
224.000      1.34400e+01
225.000      1.35390e+01
226.000      1.37362e+01
227.000      1.40060e+01
228.000      1.43119e+01
229.000      1.46101e+01
230.000      1.48540e+01
231.000      1.49999e+01
232.000      1.50138e+01
233.000      1.48773e+01
234.000      1.45925e+01
235.000      1.41813e+01
236.000      1.36821e+01
237.000      1.31427e+01
238.000      1.26114e+01
239.000      1.21297e+01
240.000      1.17276e+01
241.000      1.14218e+01
242.000      1.12167e+01
243.000      1.11071e+01
244.000      1.10806e+01
245.000      1.11194e+01
246.000      1.12007e+01
247.000      1.12971e+01
248.000      1.13766e+01
249.000      1.14046e+01
250.000      1.13469e+01
251.000      1.11755e+01
252.000      1.08736e+01
253.000      1.04404e+01
254.000      9.89396e+00
255.000      9.26937e+00
256.000      8.61410e+00
257.000      7.98021e+00
258.000      7.41556e+00
259.000      6.95568e+00
260.000      6.61822e+00
261.000      6.40070e+00
262.000      6.28187e+00
263.000      6.22610e+00
264.000      6.18972e+00
265.000      6.12806e+00
266.000      6.00199e+00
267.000      5.78298e+00
268.000      5.45631e+00
269.000      5.02221e+00
270.000      4.49510e+00
271.000      3.90128e+00
272.000      3.27514e+00
273.000      2.65449e+00
274.000      2.07561e+00
275.000      1.56906e+00
276.000      1.15690e+00
277.000      8.52148e-01
278.000      6.60048e-01
279.000      5.80694e-01
280.000      6.11794e-01
281.000      7.50690e-01
282.000      9.94983e-01
283.000      1.34160e+00
284.000      1.78450e+00
285.000      2.31161e+00
286.000      2.90167e+00
287.000      3.52218e+00
288.000      4.12962e+00
289.000      4.67287e+00
290.000      5.09997e+00
291.000      5.36712e+00
292.000      5.44746e+00
293.000      5.33697e+00
294.000      5.05539e+00
295.000      4.64176e+00
296.000      4.14613e+00
297.000      3.62021e+00
298.000      3.10972e+00
299.000      2.64976e+00
300.000      2.26356e+00
301.000      1.96330e+00
302.000      1.75199e+00
303.000      1.62559e+00
304.000      1.57546e+00
305.000      1.59126e+00
306.000      1.66433e+00
307.000      1.79077e+00
308.000      1.97309e+00
309.000      2.21979e+00
310.000      2.54245e+00
311.000      2.95153e+00
312.000      3.45209e+00
313.000      4.04087e+00
314.000      4.70592e+00
315.000      5.42866e+00
316.000      6.18789e+00
317.000      6.96462e+00
318.000      7.74624e+00
319.000      8.52866e+00
320.000      9.31584e+00
321.000      1.01168e+01
322.000      1.09410e+01
323.000      1.17949e+01
324.000      1.26795e+01
325.000      1.35916e+01
326.000      1.45270e+01
327.000      1.54838e+01
328.000      1.64641e+01
329.000      1.74729e+01
330.000      1.85136e+01
331.000      1.95831e+01
332.000      2.06675e+01
333.000      2.17414e+01
334.000      2.27706e+01
335.000      2.37180e+01
336.000      2.45495e+01
337.000      2.52388e+01
338.000      2.57693e+01
339.000      2.61332e+01
340.000      2.63285e+01
341.000      2.63567e+01
342.000      2.62208e+01
343.000      2.59259e+01
344.000      2.54799e+01
345.000      2.48952e+01
346.000      2.41891e+01
347.000      2.33826e+01
348.000      2.24983e+01
349.000      2.15572e+01
350.000      2.05781e+01
351.000      1.95769e+01
352.000      1.85701e+01
353.000      1.75775e+01
354.000      1.66242e+01
355.000      1.57403e+01
356.000      1.49552e+01
357.000      1.42910e+01
358.000      1.37541e+01
359.000      1.33318e+01
360.000      1.29932e+01
361.000      1.26959e+01
362.000      1.23956e+01
363.000      1.20567e+01
364.000      1.16592e+01
365.000      1.12018e+01
366.000      1.06993e+01
367.000      1.01765e+01
368.000      9.66033e+00
369.000      9.17251e+00
370.000      8.72444e+00
371.000      8.31551e+00
372.000      7.93487e+00
373.000      7.56586e+00
374.000      7.19175e+00
375.000      6.80123e+00
376.000      6.39250e+00
377.000      5.97554e+00
378.000      5.57205e+00
379.000      5.21327e+00
380.000      4.93535e+00
381.000      4.77256e+00
382.000      4.74919e+00
383.000      4.87176e+00
384.000      5.12390e+00
385.000      5.46593e+00
386.000      5.84023e+00
387.000      6.18162e+00
388.000      6.43030e+00
389.000      6.54395e+00
390.000      6.50550e+00
391.000      6.32462e+00
392.000      6.03252e+00
393.000      5.67196e+00
394.000      5.28553e+00
395.000      4.90570e+00
396.000      4.54940e+00
397.000      4.21829e+00
398.000      3.90381e+00
399.000      3.59468e+00
400.000      3.28370e+00
401.000      2.97141e+00
402.000      2.66551e+00
403.000      2.37680e+00
404.000      2.11408e+00
405.000      1.88012e+00
406.000      1.67083e+00
407.000      1.47738e+00
408.000      1.29034e+00
409.000      1.10358e+00
410.000      9.16491e-01
411.000      7.33767e-01
412.000      5.63187e-01
413.000      4.12682e-01
414.000      2.87857e-01
415.000      1.90748e-01
416.000      1.19913e-01
417.000      7.14497e-02
418.000      4.03265e-02
419.000      2.15505e-02
420.000      1.09014e-02
421.000      5.21898e-03
422.000      2.36436e-03
423.000      1.01352e-03
424.000      4.11072e-04
425.000      1.57744e-04
426.000      5.72700e-05
427.000      1.96713e-05
428.000      6.39247e-06
429.000      1.96529e-06
430.000      5.71621e-07
431.000      1.57293e-07
432.000      4.09478e-08
433.000      1.00849e-08
434.000      2.34979e-09
435.000      5.17973e-10
436.000      1.08019e-10
437.000      2.13115e-11
438.000      3.97783e-12
439.000      7.02416e-13
440.000      1.17344e-13
441.000      1.85457e-14
442.000      2.77297e-15
443.000      3.92252e-16
444.000      5.24930e-17
445.000      6.64593e-18
446.000      7.96027e-19
447.000      9.02023e-20
448.000      9.66996e-21
449.000      9.80730e-22
450.000      9.41005e-23
451.000      8.54185e-24
452.000      7.33550e-25
453.000      5.95971e-26
454.000      4.58076e-27
455.000      3.33095e-28
456.000      2.29148e-29
457.000      1.49136e-30
458.000      9.18258e-32
459.000      5.34891e-33
460.000      2.94771e-34
461.000      1.53681e-35
462.000      7.58008e-37
463.000      3.53708e-38
464.000      1.56147e-39
465.000      6.52139e-41
466.000      2.57670e-42
467.000      9.63176e-44
468.000      3.40616e-45
469.000      1.13957e-46
470.000      3.60692e-48
471.000      1.08006e-49
472.000      3.05969e-51
473.000      8.20021e-53
474.000      2.07917e-54
475.000      4.98738e-56
476.000      1.13181e-57
477.000      2.42991e-59
478.000      4.93543e-61
479.000      9.48370e-63
480.000      1.72404e-64
481.000      2.96508e-66
482.000      4.82438e-68
483.000      7.42617e-70
484.000      1.08145e-71
485.000      1.48992e-73
486.000      1.94196e-75
487.000      2.39461e-77
488.000      2.79348e-79
489.000      3.08300e-81
490.000      3.21900e-83
491.000      3.17969e-85
492.000      2.97143e-87
493.000      2.62703e-89
494.000      2.19726e-91
495.000      1.73867e-93
496.000      1.30157e-95
497.000      9.21803e-98
498.000     6.17626e-100
499.000     3.91499e-102
500.000     2.34775e-104
