# Gaussian folded, width=10 cm^-1
# [cm^-1] arbitrary
0.000      3.00000e+00
1.000      2.91796e+00
2.000      2.68508e+00
3.000      2.33749e+00
4.000      1.92514e+00
5.000      1.50000e+00
6.000      1.10570e+00
7.000      7.71085e-01
8.000      5.08727e-01
9.000      3.17530e-01
10.000      1.87500e-01
11.000      1.04746e-01
12.000      5.53615e-02
13.000      2.76879e-02
14.000      1.31202e-02
15.000      5.94196e-03
16.000      2.71970e-03
17.000      1.64879e-03
18.000      2.07804e-03
19.000      4.32166e-03
20.000      9.80692e-03
21.000      2.15816e-02
22.000      4.51685e-02
23.000      8.96580e-02
24.000      1.68747e-01
25.000      3.01183e-01
26.000      5.09872e-01
27.000      8.18892e-01
28.000      1.24805e+00
29.000      1.80549e+00
30.000      2.47989e+00
31.000      3.23497e+00
32.000      4.00902e+00
33.000      4.72135e+00
34.000      5.28543e+00
35.000      5.62605e+00
36.000      5.69571e+00
37.000      5.48548e+00
38.000      5.02680e+00
39.000      4.38379e+00
40.000      3.63883e+00
41.000      2.87568e+00
42.000      2.16514e+00
43.000      1.55647e+00
44.000      1.07577e+00
45.000      7.30075e-01
46.000      5.14926e-01
47.000      4.22503e-01
48.000      4.47869e-01
49.000      5.91810e-01
50.000      8.59598e-01
51.000      1.25609e+00
52.000      1.77849e+00
53.000      2.40910e+00
54.000      3.11049e+00
55.000      3.82565e+00
56.000      4.48388e+00
57.000      5.01182e+00
58.000      5.34675e+00
59.000      5.44874e+00
60.000      5.30812e+00
61.000      4.94660e+00
62.000      4.41201e+00
63.000      3.76865e+00
64.000      3.08602e+00
65.000      2.42870e+00
66.000      1.84940e+00
67.000      1.38604e+00
68.000      1.06246e+00
69.000      8.91420e-01
70.000      8.78117e-01
71.000      1.02250e+00
72.000      1.31943e+00
73.000      1.75672e+00
74.000      2.31217e+00
75.000      2.95119e+00
76.000      3.62705e+00
77.000      4.28476e+00
78.000      4.86884e+00
79.000      5.33378e+00
80.000      5.65515e+00
81.000      5.83814e+00
82.000      5.92084e+00
83.000      5.96995e+00
84.000      6.06877e+00
85.000      6.29953e+00
86.000      6.72429e+00
87.000      7.36976e+00
88.000      8.22073e+00
89.000      9.22386e+00
90.000      1.03008e+01
91.000      1.13659e+01
92.000      1.23436e+01
93.000      1.31789e+01
94.000      1.38415e+01
95.000      1.43203e+01
96.000      1.46151e+01
97.000      1.47276e+01
98.000      1.46559e+01
99.000      1.43952e+01
100.000      1.39434e+01
101.000      1.33098e+01
102.000      1.25232e+01
103.000      1.16351e+01
104.000      1.07169e+01
105.000      9.84988e+00
106.000      9.11166e+00
107.000      8.56295e+00
108.000      8.23871e+00
109.000      8.14687e+00
110.000      8.27434e+00
111.000      8.59743e+00
112.000      9.09220e+00
113.000      9.74014e+00
114.000      1.05273e+01
115.000      1.14375e+01
116.000      1.24435e+01
117.000      1.35011e+01
118.000      1.45488e+01
119.000      1.55156e+01
120.000      1.63331e+01
121.000      1.69494e+01
122.000      1.73379e+01
123.000      1.74998e+01
124.000      1.74589e+01
125.000      1.72516e+01
126.000      1.69159e+01
127.000      1.64851e+01
128.000      1.59847e+01
129.000      1.54355e+01
130.000      1.48573e+01
131.000      1.42726e+01
132.000      1.37060e+01
133.000      1.31817e+01
134.000      1.27186e+01
135.000      1.23259e+01
136.000      1.20015e+01
137.000      1.17322e+01
138.000      1.14971e+01
139.000      1.12732e+01
140.000      1.10406e+01
141.000      1.07877e+01
142.000      1.05127e+01
143.000      1.02234e+01
144.000      9.93238e+00
145.000      9.65138e+00
146.000      9.38569e+00
147.000      9.13086e+00
148.000      8.87279e+00
149.000      8.59090e+00
150.000      8.26313e+00
151.000      7.87109e+00
152.000      7.40419e+00
153.000      6.86236e+00
154.000      6.25739e+00
155.000      5.61310e+00
156.000      4.96410e+00
157.000      4.35278e+00
158.000      3.82398e+00
159.000      3.41777e+00
160.000      3.16141e+00
161.000      3.06245e+00
162.000      3.10518e+00
163.000      3.25189e+00
164.000      3.44935e+00
165.000      3.63935e+00
166.000      3.77111e+00
167.000      3.81272e+00
168.000      3.75911e+00
169.000      3.63465e+00
170.000      3.48962e+00
171.000      3.39113e+00
172.000      3.40989e+00
173.000      3.60540e+00
174.000      4.01243e+00
175.000      4.63187e+00
176.000      5.42825e+00
177.000      6.33489e+00
178.000      7.26576e+00
179.000      8.13135e+00
180.000      8.85459e+00
181.000      9.38289e+00
182.000      9.69395e+00
183.000      9.79502e+00
184.000      9.71735e+00
185.000      9.50855e+00
186.000      9.22524e+00
187.000      8.92688e+00
188.000      8.67036e+00
189.000      8.50440e+00
190.000      8.46375e+00
191.000      8.56436e+00
192.000      8.80150e+00
193.000      9.15240e+00
194.000      9.58327e+00
195.000      1.00583e+01
196.000      1.05476e+01
197.000      1.10313e+01
198.000      1.14989e+01
199.000      1.19460e+01
200.000      1.23697e+01
201.000      1.27657e+01
202.000      1.31280e+01
203.000      1.34486e+01
204.000      1.37179e+01
205.000      1.39243e+01
206.000      1.40528e+01
207.000      1.40857e+01
208.000      1.40048e+01
209.000      1.37962e+01
210.000      1.34567e+01
211.000      1.29985e+01
212.000      1.24518e+01
213.000      1.18638e+01
214.000      1.12946e+01
215.000      1.08110e+01
216.000      1.04792e+01
217.000      1.03565e+01
218.000      1.04829e+01
219.000      1.08731e+01
220.000      1.15113e+01
221.000      1.23503e+01
222.000      1.33173e+01
223.000      1.43258e+01
224.000      1.52907e+01
225.000      1.61431e+01
226.000      1.68392e+01
227.000      1.73620e+01
228.000      1.77156e+01
229.000      1.79153e+01
230.000      1.79780e+01
231.000      1.79162e+01
232.000      1.77373e+01
233.000      1.74462e+01
234.000      1.70510e+01
235.000      1.65671e+01
236.000      1.60198e+01
237.000      1.54440e+01
238.000      1.48808e+01
239.000      1.43730e+01
240.000      1.39589e+01
241.000      1.36660e+01
242.000      1.35062e+01
243.000      1.34740e+01
244.000      1.35473e+01
245.000      1.36927e+01
246.000      1.38716e+01
247.000      1.40462e+01
248.000      1.41835e+01
249.000      1.42555e+01
250.000      1.42379e+01
251.000      1.41081e+01
252.000      1.38457e+01
253.000      1.34354e+01
254.000      1.28724e+01
255.000      1.21670e+01
256.000      1.13472e+01
257.000      1.04560e+01
258.000      9.54466e+00
259.000      8.66333e+00
260.000      7.85255e+00
261.000      7.13783e+00
262.000      6.52892e+00
263.000      6.02328e+00
264.000      5.61169e+00
265.000      5.28332e+00
266.000      5.02840e+00
267.000      4.83763e+00
268.000      4.69947e+00
269.000      4.59720e+00
270.000      4.50818e+00
271.000      4.40633e+00
272.000      4.26769e+00
273.000      4.07726e+00
274.000      3.83421e+00
275.000      3.55337e+00
276.000      3.26162e+00
277.000      2.99010e+00
278.000      2.76466e+00
279.000      2.59765e+00
280.000      2.48407e+00
281.000      2.40336e+00
282.000      2.32631e+00
283.000      2.22469e+00
284.000      2.08030e+00
285.000      1.89085e+00
286.000      1.67100e+00
287.000      1.44898e+00
288.000      1.26044e+00
289.000      1.14155e+00
290.000      1.12316e+00
291.000      1.22697e+00
292.000      1.46353e+00
293.000      1.83149e+00
294.000      2.31746e+00
295.000      2.89594e+00
296.000      3.52967e+00
297.000      4.17113e+00
298.000      4.76607e+00
299.000      5.25992e+00
300.000      5.60668e+00
301.000      5.77885e+00
302.000      5.77549e+00
303.000      5.62561e+00
304.000      5.38486e+00
305.000      5.12561e+00
306.000      4.92255e+00
307.000      4.83772e+00
308.000      4.90891e+00
309.000      5.14444e+00
310.000      5.52529e+00
311.000      6.01354e+00
312.000      6.56390e+00
313.000      7.13463e+00
314.000      7.69456e+00
315.000      8.22447e+00
316.000      8.71387e+00
317.000      9.15583e+00
318.000      9.54326e+00
319.000      9.86899e+00
320.000      1.01300e+01
321.000      1.03338e+01
322.000      1.05037e+01
323.000      1.06798e+01
324.000      1.09148e+01
325.000      1.12646e+01
326.000      1.17770e+01
327.000      1.24810e+01
328.000      1.33805e+01
329.000      1.44530e+01
330.000      1.56541e+01
331.000      1.69247e+01
332.000      1.82003e+01
333.000      1.94196e+01
334.000      2.05317e+01
335.000      2.15005e+01
336.000      2.23070e+01
337.000      2.29490e+01
338.000      2.34378e+01
339.000      2.37928e+01
340.000      2.40349e+01
341.000      2.41806e+01
342.000      2.42371e+01
343.000      2.42012e+01
344.000      2.40609e+01
345.000      2.37995e+01
346.000      2.34014e+01
347.000      2.28567e+01
348.000      2.21646e+01
349.000      2.13346e+01
350.000      2.03853e+01
351.000      1.93412e+01
352.000      1.82285e+01
353.000      1.70710e+01
354.000      1.58872e+01
355.000      1.46901e+01
356.000      1.34890e+01
357.000      1.22945e+01
358.000      1.11224e+01
359.000      9.99846e+00
360.000      8.95753e+00
361.000      8.04080e+00
362.000      7.28851e+00
363.000      6.73100e+00
364.000      6.38012e+00
365.000      6.22314e+00
366.000      6.22136e+00
367.000      6.31437e+00
368.000      6.42962e+00
369.000      6.49548e+00
370.000      6.45465e+00
371.000      6.27483e+00
372.000      5.95397e+00
373.000      5.51929e+00
374.000      5.02099e+00
375.000      4.52279e+00
376.000      4.09191e+00
377.000      3.79075e+00
378.000      3.67109e+00
379.000      3.77100e+00
380.000      4.11317e+00
381.000      4.70342e+00
382.000      5.52860e+00
383.000      6.55367e+00
384.000      7.71939e+00
385.000      8.94235e+00
386.000      1.01192e+01
387.000      1.11360e+01
388.000      1.18829e+01
389.000      1.22704e+01
390.000      1.22448e+01
391.000      1.17987e+01
392.000      1.09729e+01
393.000      9.84907e+00
394.000      8.53539e+00
395.000      7.14850e+00
396.000      5.79611e+00
397.000      4.56432e+00
398.000      3.51119e+00
399.000      2.66624e+00
400.000      2.03392e+00
401.000      1.59910e+00
402.000      1.33285e+00
403.000      1.19789e+00
404.000      1.15392e+00
405.000      1.16271e+00
406.000      1.19275e+00
407.000      1.22262e+00
408.000      1.24202e+00
409.000      1.24996e+00
410.000      1.25068e+00
411.000      1.24856e+00
412.000      1.24409e+00
413.000      1.23229e+00
414.000      1.20416e+00
415.000      1.15028e+00
416.000      1.06482e+00
417.000      9.48358e-01
418.000      8.08206e-01
419.000      6.56524e-01
420.000      5.07013e-01
421.000      3.71596e-01
422.000      2.58175e-01
423.000      1.69915e-01
424.000      1.05881e-01
425.000      6.24526e-02
426.000      3.48611e-02
427.000      1.84136e-02
428.000      9.20261e-03
429.000      4.35148e-03
430.000      1.94672e-03
431.000      8.23952e-04
432.000      3.29934e-04
433.000      1.24990e-04
434.000      4.47966e-05
435.000      1.51892e-05
436.000      4.87241e-06
437.000      1.47867e-06
438.000      4.24538e-07
439.000      1.15313e-07
440.000      2.96320e-08
441.000      7.20377e-09
442.000      1.65682e-09
443.000      3.60504e-10
444.000      7.42100e-11
445.000      1.44521e-11
446.000      2.66268e-12
447.000      4.64113e-13
448.000      7.65326e-14
449.000      1.19395e-14
450.000      1.76216e-15
451.000      2.46048e-16
452.000      3.25022e-17
453.000      4.06184e-18
454.000      4.80232e-19
455.000      5.37151e-20
456.000      5.68407e-21
457.000      5.69037e-22
458.000      5.38938e-23
459.000      4.82897e-24
460.000      4.09344e-25
461.000      3.28276e-26
462.000      2.49063e-27
463.000      1.78770e-28
464.000      1.21394e-29
465.000      7.79867e-31
466.000      4.73980e-32
467.000      2.72531e-33
468.000      1.48249e-34
469.000      7.62927e-36
470.000      3.71443e-37
471.000      1.71088e-38
472.000      7.45529e-40
473.000      3.07346e-41
474.000      1.19869e-42
475.000      4.42288e-44
476.000      1.54390e-45
477.000      5.09862e-47
478.000      1.59295e-48
479.000      4.70838e-50
480.000      1.31661e-51
481.000      3.48305e-53
482.000      8.71728e-55
483.000      2.06405e-56
484.000      4.62355e-58
485.000      9.79826e-60
486.000      1.96445e-61
487.000      3.72605e-63
488.000      6.68614e-65
489.000      1.13506e-66
490.000      1.82298e-68
491.000      2.76988e-70
492.000      3.98160e-72
493.000      5.41467e-74
494.000      6.96632e-76
495.000      8.47917e-78
496.000      9.76384e-80
497.000      1.06367e-81
498.000      1.09625e-83
499.000      1.06888e-85
500.000      9.85974e-88
