# Gaussian folded, width=10 cm^-1
# [cm^-1] arbitrary
0.000      3.00000e+00
1.000      2.91796e+00
2.000      2.68508e+00
3.000      2.33749e+00
4.000      1.92514e+00
5.000      1.50000e+00
6.000      1.10570e+00
7.000      7.71085e-01
8.000      5.08727e-01
9.000      3.17530e-01
10.000      1.87501e-01
11.000      1.04750e-01
12.000      5.53721e-02
13.000      2.77212e-02
14.000      1.32192e-02
15.000      6.21974e-03
16.000      3.45680e-03
17.000      3.49741e-03
18.000      6.45900e-03
19.000      1.41299e-02
20.000      3.05457e-02
21.000      6.29794e-02
22.000      1.23145e-01
23.000      2.28166e-01
24.000      4.00569e-01
25.000      6.66383e-01
26.000      1.05059e+00
27.000      1.56979e+00
28.000      2.22329e+00
29.000      2.98497e+00
30.000      3.79938e+00
31.000      4.58522e+00
32.000      5.24715e+00
33.000      5.69433e+00
34.000      5.86083e+00
35.000      5.72151e+00
36.000      5.29836e+00
37.000      4.65487e+00
38.000      3.88077e+00
39.000      3.07218e+00
40.000      2.31346e+00
41.000      1.66582e+00
42.000      1.16435e+00
43.000      8.22491e-01
44.000      6.40653e-01
45.000      6.15008e-01
46.000      7.43315e-01
47.000      1.02588e+00
48.000      1.46159e+00
49.000      2.04046e+00
50.000      2.73557e+00
51.000      3.49775e+00
52.000      4.25606e+00
53.000      4.92552e+00
54.000      5.42122e+00
55.000      5.67530e+00
56.000      5.65184e+00
57.000      5.35511e+00
58.000      4.82842e+00
59.000      4.14415e+00
60.000      3.38818e+00
61.000      2.64381e+00
62.000      1.97935e+00
63.000      1.44235e+00
64.000      1.06032e+00
65.000      8.45974e-01
66.000      8.03888e-01
67.000      9.35223e-01
68.000      1.23864e+00
69.000      1.70704e+00
70.000      2.32164e+00
71.000      3.04642e+00
72.000      3.82641e+00
73.000      4.59236e+00
74.000      5.27249e+00
75.000      5.80886e+00
76.000      6.17386e+00
77.000      6.38107e+00
78.000      6.48590e+00
79.000      6.57487e+00
80.000      6.74569e+00
81.000      7.08421e+00
82.000      7.64493e+00
83.000      8.44050e+00
84.000      9.44228e+00
85.000      1.05898e+01
86.000      1.18048e+01
87.000      1.30041e+01
88.000      1.41089e+01
89.000      1.50502e+01
90.000      1.57708e+01
91.000      1.62281e+01
92.000      1.63978e+01
93.000      1.62768e+01
94.000      1.58853e+01
95.000      1.52642e+01
96.000      1.44692e+01
97.000      1.35622e+01
98.000      1.26031e+01
99.000      1.16449e+01
100.000      1.07327e+01
101.000      9.90665e+00
102.000      9.20703e+00
103.000      8.67808e+00
104.000      8.36916e+00
105.000      8.33123e+00
106.000      8.60894e+00
107.000      9.22944e+00
108.000      1.01909e+01
109.000      1.14535e+01
110.000      1.29372e+01
111.000      1.45266e+01
112.000      1.60852e+01
113.000      1.74752e+01
114.000      1.85797e+01
115.000      1.93209e+01
116.000      1.96708e+01
117.000      1.96512e+01
118.000      1.93242e+01
119.000      1.87767e+01
120.000      1.81035e+01
121.000      1.73931e+01
122.000      1.67188e+01
123.000      1.61337e+01
124.000      1.56696e+01
125.000      1.53369e+01
126.000      1.51254e+01
127.000      1.50063e+01
128.000      1.49369e+01
129.000      1.48674e+01
130.000      1.47495e+01
131.000      1.45447e+01
132.000      1.42292e+01
133.000      1.37958e+01
134.000      1.32516e+01
135.000      1.26135e+01
136.000      1.19031e+01
137.000      1.11434e+01
138.000      1.03558e+01
139.000      9.56024e+00
140.000      8.77481e+00
141.000      8.01638e+00
142.000      7.30062e+00
143.000      6.64134e+00
144.000      6.04912e+00
145.000      5.52985e+00
146.000      5.08395e+00
147.000      4.70694e+00
148.000      4.39154e+00
149.000      4.13041e+00
150.000      3.91836e+00
151.000      3.75275e+00
152.000      3.63205e+00
153.000      3.55319e+00
154.000      3.50949e+00
155.000      3.49025e+00
156.000      3.48241e+00
157.000      3.47339e+00
158.000      3.45384e+00
159.000      3.41927e+00
160.000      3.37017e+00
161.000      3.31144e+00
162.000      3.25155e+00
163.000      3.20228e+00
164.000      3.17855e+00
165.000      3.19808e+00
166.000      3.28023e+00
167.000      3.44384e+00
168.000      3.70430e+00
169.000      4.07032e+00
170.000      4.54095e+00
171.000      5.10378e+00
172.000      5.73492e+00
173.000      6.40133e+00
174.000      7.06582e+00
175.000      7.69410e+00
176.000      8.26238e+00
177.000      8.76372e+00
178.000      9.21060e+00
179.000      9.63259e+00
180.000      1.00690e+01
181.000      1.05579e+01
182.000      1.11253e+01
183.000      1.17761e+01
184.000      1.24905e+01
185.000      1.32269e+01
186.000      1.39294e+01
187.000      1.45397e+01
188.000      1.50095e+01
189.000      1.53114e+01
190.000      1.54451e+01
191.000      1.54384e+01
192.000      1.53416e+01
193.000      1.52181e+01
194.000      1.51319e+01
195.000      1.51369e+01
196.000      1.52698e+01
197.000      1.55472e+01
198.000      1.59680e+01
199.000      1.65174e+01
200.000      1.71706e+01
201.000      1.78952e+01
202.000      1.86507e+01
203.000      1.93877e+01
204.000      2.00490e+01
205.000      2.05729e+01
206.000      2.09010e+01
207.000      2.09874e+01
208.000      2.08091e+01
209.000      2.03722e+01
210.000      1.97135e+01
211.000      1.88970e+01
212.000      1.80046e+01
213.000      1.71250e+01
214.000      1.63413e+01
215.000      1.57208e+01
216.000      1.53072e+01
217.000      1.51161e+01
218.000      1.51343e+01
219.000      1.53231e+01
220.000      1.56253e+01
221.000      1.59769e+01
222.000      1.63197e+01
223.000      1.66143e+01
224.000      1.68480e+01
225.000      1.70348e+01
226.000      1.72090e+01
227.000      1.74124e+01
228.000      1.76803e+01
229.000      1.80307e+01
230.000      1.84590e+01
231.000      1.89394e+01
232.000      1.94319e+01
233.000      1.98919e+01
234.000      2.02796e+01
235.000      2.05680e+01
236.000      2.07470e+01
237.000      2.08235e+01
238.000      2.08183e+01
239.000      2.07602e+01
240.000      2.06797e+01
241.000      2.06036e+01
242.000      2.05517e+01
243.000      2.05365e+01
244.000      2.05641e+01
245.000      2.06359e+01
246.000      2.07478e+01
247.000      2.08886e+01
248.000      2.10352e+01
249.000      2.11493e+01
250.000      2.11760e+01
251.000      2.10494e+01
252.000      2.07019e+01
253.000      2.00800e+01
254.000      1.91576e+01
255.000      1.79467e+01
256.000      1.64985e+01
257.000      1.48961e+01
258.000      1.32404e+01
259.000      1.16336e+01
260.000      1.01631e+01
261.000      8.89213e+00
262.000      7.85500e+00
263.000      7.05853e+00
264.000      6.48709e+00
265.000      6.10898e+00
266.000      5.88292e+00
267.000      5.76365e+00
268.000      5.70686e+00
269.000      5.67375e+00
270.000      5.63526e+00
271.000      5.57534e+00
272.000      5.49242e+00
273.000      5.39818e+00
274.000      5.31349e+00
275.000      5.26235e+00
276.000      5.26519e+00
277.000      5.33316e+00
278.000      5.46461e+00
279.000      5.64416e+00
280.000      5.84487e+00
281.000      6.03290e+00
282.000      6.17436e+00
283.000      6.24285e+00
284.000      6.22554e+00
285.000      6.12585e+00
286.000      5.96100e+00
287.000      5.75501e+00
288.000      5.52930e+00
289.000      5.29463e+00
290.000      5.04781e+00
291.000      4.77466e+00
292.000      4.45806e+00
293.000      4.08777e+00
294.000      3.66788e+00
295.000      3.21859e+00
296.000      2.77182e+00
297.000      2.36225e+00
298.000      2.01766e+00
299.000      1.75205e+00
300.000      1.56391e+00
301.000      1.44005e+00
302.000      1.36282e+00
303.000      1.31796e+00
304.000      1.29988e+00
305.000      1.31269e+00
306.000      1.36680e+00
307.000      1.47286e+00
308.000      1.63548e+00
309.000      1.84946e+00
310.000      2.10001e+00
311.000      2.36690e+00
312.000      2.63077e+00
313.000      2.87918e+00
314.000      3.11008e+00
315.000      3.33170e+00
316.000      3.55933e+00
317.000      3.81070e+00
318.000      4.10154e+00
319.000      4.44259e+00
320.000      4.83812e+00
321.000      5.28564e+00
322.000      5.77637e+00
323.000      6.29666e+00
324.000      6.83062e+00
325.000      7.36422e+00
326.000      7.89018e+00
327.000      8.41204e+00
328.000      8.94567e+00
329.000      9.51663e+00
330.000      1.01532e+01
331.000      1.08765e+01
332.000      1.16908e+01
333.000      1.25763e+01
334.000      1.34876e+01
335.000      1.43586e+01
336.000      1.51121e+01
337.000      1.56729e+01
338.000      1.59816e+01
339.000      1.60051e+01
340.000      1.57430e+01
341.000      1.52279e+01
342.000      1.45193e+01
343.000      1.36926e+01
344.000      1.28257e+01
345.000      1.19861e+01
346.000      1.12203e+01
347.000      1.05493e+01
348.000      9.96953e+00
349.000      9.46020e+00
350.000      8.99331e+00
351.000      8.54512e+00
352.000      8.10473e+00
353.000      7.67754e+00
354.000      7.28253e+00
355.000      6.94463e+00
356.000      6.68488e+00
357.000      6.51226e+00
358.000      6.41955e+00
359.000      6.38465e+00
360.000      6.37629e+00
361.000      6.36217e+00
362.000      6.31670e+00
363.000      6.22630e+00
364.000      6.09099e+00
365.000      5.92188e+00
366.000      5.73579e+00
367.000      5.54851e+00
368.000      5.36905e+00
369.000      5.19669e+00
370.000      5.02173e+00
371.000      4.82961e+00
372.000      4.60676e+00
373.000      4.34616e+00
374.000      4.05083e+00
375.000      3.73437e+00
376.000      3.41882e+00
377.000      3.13053e+00
378.000      2.89538e+00
379.000      2.73412e+00
380.000      2.65852e+00
381.000      2.66898e+00
382.000      2.75373e+00
383.000      2.89006e+00
384.000      3.04758e+00
385.000      3.19294e+00
386.000      3.29527e+00
387.000      3.33132e+00
388.000      3.28908e+00
389.000      3.16930e+00
390.000      2.98447e+00
391.000      2.75563e+00
392.000      2.50763e+00
393.000      2.26387e+00
394.000      2.04159e+00
395.000      1.84893e+00
396.000      1.68436e+00
397.000      1.53876e+00
398.000      1.39950e+00
399.000      1.25512e+00
400.000      1.09918e+00
401.000      9.31977e-01
402.000      7.59899e-01
403.000      5.92838e-01
404.000      4.40951e-01
405.000      3.11918e-01
406.000      2.09482e-01
407.000      1.33417e-01
408.000      8.05187e-02
409.000      4.60228e-02
410.000      2.49051e-02
411.000      1.27567e-02
412.000      6.18375e-03
413.000      2.83650e-03
414.000      1.23112e-03
415.000      5.05571e-04
416.000      1.96432e-04
417.000      7.22072e-05
418.000      2.51120e-05
419.000      8.26248e-06
420.000      2.57195e-06
421.000      7.57423e-07
422.000      2.11025e-07
423.000      5.56224e-08
424.000      1.38703e-08
425.000      3.27218e-09
426.000      7.30313e-10
427.000      1.54205e-10
428.000      3.08039e-11
429.000      5.82145e-12
430.000      1.04082e-12
431.000      1.76050e-13
432.000      2.81717e-14
433.000      4.26491e-15
434.000      6.10834e-16
435.000      8.27665e-17
436.000      1.06097e-17
437.000      1.28668e-18
438.000      1.47623e-19
439.000      1.60235e-20
440.000      1.64542e-21
441.000      1.59850e-22
442.000      1.46915e-23
443.000      1.27744e-24
444.000      1.05082e-25
445.000      8.17780e-27
446.000      6.02090e-28
447.000      4.19376e-29
448.000      2.76353e-30
449.000      1.72283e-31
450.000      1.01610e-32
451.000      5.66957e-34
452.000      2.99282e-35
453.000      1.49461e-36
454.000      7.06147e-38
455.000      3.15630e-39
456.000      1.33469e-40
457.000      5.33947e-42
458.000      2.02085e-43
459.000      7.23582e-45
460.000      2.45109e-46
461.000      7.85504e-48
462.000      2.38152e-49
463.000      6.83092e-51
464.000      1.85362e-52
465.000      4.75861e-54
466.000      1.15573e-55
467.000      2.65553e-57
468.000      5.77250e-59
469.000      1.18712e-60
470.000      2.30962e-62
471.000      4.25115e-64
472.000      7.40267e-66
473.000      1.21952e-67
474.000      1.90067e-69
475.000      2.80248e-71
476.000      3.90926e-73
477.000      5.15900e-75
478.000      6.44101e-77
479.000      7.60781e-79
480.000      8.50125e-81
481.000      8.98719e-83
482.000      8.98840e-85
483.000      8.50470e-87
484.000      7.61294e-89
485.000      6.44709e-91
486.000      5.16527e-93
487.000      3.91507e-95
488.000      2.80740e-97
489.000      1.90452e-99
490.000     1.22232e-101
491.000     7.42167e-104
492.000     4.26321e-106
493.000     2.31680e-108
494.000     1.19113e-110
495.000     5.79357e-113
496.000     2.66594e-115
497.000     1.16058e-117
498.000     4.77984e-120
499.000     1.86239e-122
500.000     6.86510e-125
