# Gaussian folded, width=10 cm^-1
# [cm^-1] arbitrary
0.000      3.00000e+00
1.000      2.91796e+00
2.000      2.68508e+00
3.000      2.33749e+00
4.000      1.92514e+00
5.000      1.50000e+00
6.000      1.10570e+00
7.000      7.71085e-01
8.000      5.08727e-01
9.000      3.17529e-01
10.000      1.87500e-01
11.000      1.04746e-01
12.000      5.53592e-02
13.000      2.76801e-02
14.000      1.30954e-02
15.000      5.86692e-03
16.000      2.50524e-03
17.000      1.06920e-03
18.000      5.97084e-04
19.000      7.44559e-04
20.000      1.64151e-03
21.000      3.97176e-03
22.000      9.30098e-03
23.000      2.06952e-02
24.000      4.36510e-02
25.000      8.72605e-02
26.000      1.65341e-01
27.000      2.96990e-01
28.000      5.05786e-01
29.000      8.16819e-01
30.000      1.25110e+00
31.000      1.81780e+00
32.000      2.50591e+00
33.000      3.27819e+00
34.000      4.07038e+00
35.000      4.79792e+00
36.000      5.36995e+00
37.000      5.70779e+00
38.000      5.76264e+00
39.000      5.52715e+00
40.000      5.03697e+00
41.000      4.36194e+00
42.000      3.58985e+00
43.000      2.80801e+00
44.000      2.08783e+00
45.000      1.47601e+00
46.000      9.93153e-01
47.000      6.38410e-01
48.000      3.97422e-01
49.000      2.50878e-01
50.000      1.81717e-01
51.000      1.80050e-01
52.000      2.45614e-01
53.000      3.87805e-01
54.000      6.23297e-01
55.000      9.71220e-01
56.000      1.44606e+00
57.000      2.04924e+00
58.000      2.76123e+00
59.000      3.53683e+00
60.000      4.30638e+00
61.000      4.98418e+00
62.000      5.48333e+00
63.000      5.73383e+00
64.000      5.69854e+00
65.000      5.38228e+00
66.000      4.83096e+00
67.000      4.12099e+00
68.000      3.34263e+00
69.000      2.58240e+00
70.000      1.90974e+00
71.000      1.37069e+00
72.000      9.88761e-01
73.000      7.70816e-01
74.000      7.14458e-01
75.000      8.13811e-01
76.000      1.06177e+00
77.000      1.44849e+00
78.000      1.95739e+00
79.000      2.56085e+00
80.000      3.21783e+00
81.000      3.87519e+00
82.000      4.47309e+00
83.000      4.95373e+00
84.000      5.27188e+00
85.000      5.40467e+00
86.000      5.35872e+00
87.000      5.17251e+00
88.000      4.91304e+00
89.000      4.66669e+00
90.000      4.52533e+00
91.000      4.57047e+00
92.000      4.85866e+00
93.000      5.41195e+00
94.000      6.21577e+00
95.000      7.22453e+00
96.000      8.37292e+00
97.000      9.58891e+00
98.000      1.08044e+01
99.000      1.19604e+01
100.000      1.30072e+01
101.000      1.39010e+01
102.000      1.46006e+01
103.000      1.50675e+01
104.000      1.52686e+01
105.000      1.51820e+01
106.000      1.48028e+01
107.000      1.41464e+01
108.000      1.32492e+01
109.000      1.21665e+01
110.000      1.09679e+01
111.000      9.73269e+00
112.000      8.54338e+00
113.000      7.47904e+00
114.000      6.60863e+00
115.000      5.98560e+00
116.000      5.64494e+00
117.000      5.60308e+00
118.000      5.86016e+00
119.000      6.40267e+00
120.000      7.20514e+00
121.000      8.23007e+00
122.000      9.42687e+00
123.000      1.07317e+01
124.000      1.20698e+01
125.000      1.33611e+01
126.000      1.45283e+01
127.000      1.55053e+01
128.000      1.62448e+01
129.000      1.67223e+01
130.000      1.69367e+01
131.000      1.69080e+01
132.000      1.66722e+01
133.000      1.62754e+01
134.000      1.57667e+01
135.000      1.51934e+01
136.000      1.45971e+01
137.000      1.40115e+01
138.000      1.34624e+01
139.000      1.29680e+01
140.000      1.25394e+01
141.000      1.21818e+01
142.000      1.18956e+01
143.000      1.16783e+01
144.000      1.15259e+01
145.000      1.14348e+01
146.000      1.14008e+01
147.000      1.14171e+01
148.000      1.14715e+01
149.000      1.15440e+01
150.000      1.16064e+01
151.000      1.16253e+01
152.000      1.15673e+01
153.000      1.14048e+01
154.000      1.11213e+01
155.000      1.07136e+01
156.000      1.01914e+01
157.000      9.57570e+00
158.000      8.89441e+00
159.000      8.17968e+00
160.000      7.46538e+00
161.000      6.78558e+00
162.000      6.17321e+00
163.000      5.65785e+00
164.000      5.26245e+00
165.000      4.99902e+00
166.000      4.86483e+00
167.000      4.84057e+00
168.000      4.89206e+00
169.000      4.97588e+00
170.000      5.04768e+00
171.000      5.07110e+00
172.000      5.02446e+00
173.000      4.90342e+00
174.000      4.71907e+00
175.000      4.49249e+00
176.000      4.24791e+00
177.000      4.00649e+00
178.000      3.78247e+00
179.000      3.58226e+00
180.000      3.40612e+00
181.000      3.25139e+00
182.000      3.11614e+00
183.000      3.00199e+00
184.000      2.91534e+00
185.000      2.86695e+00
186.000      2.86979e+00
187.000      2.93598e+00
188.000      3.07366e+00
189.000      3.28473e+00
190.000      3.56415e+00
191.000      3.90109e+00
192.000      4.28143e+00
193.000      4.69068e+00
194.000      5.11635e+00
195.000      5.54927e+00
196.000      5.98383e+00
197.000      6.41756e+00
198.000      6.85066e+00
199.000      7.28546e+00
200.000      7.72568e+00
201.000      8.17498e+00
202.000      8.63459e+00
203.000      9.10020e+00
204.000      9.55900e+00
205.000      9.98789e+00
206.000      1.03540e+01
207.000      1.06184e+01
208.000      1.07419e+01
209.000      1.06942e+01
210.000      1.04613e+01
211.000      1.00524e+01
212.000      9.50224e+00
213.000      8.86876e+00
214.000      8.22569e+00
215.000      7.65170e+00
216.000      7.21785e+00
217.000      6.97599e+00
218.000      6.95060e+00
219.000      7.13547e+00
220.000      7.49609e+00
221.000      7.97675e+00
222.000      8.51086e+00
223.000      9.03226e+00
224.000      9.48555e+00
225.000      9.83358e+00
226.000      1.00611e+01
227.000      1.01742e+01
228.000      1.01953e+01
229.000      1.01552e+01
230.000      1.00845e+01
231.000      1.00047e+01
232.000      9.92446e+00
233.000      9.83905e+00
234.000      9.73437e+00
235.000      9.59358e+00
236.000      9.40369e+00
237.000      9.16025e+00
238.000      8.86862e+00
239.000      8.54197e+00
240.000      8.19708e+00
241.000      7.84977e+00
242.000      7.51169e+00
243.000      7.18935e+00
244.000      6.88515e+00
245.000      6.59949e+00
246.000      6.33244e+00
247.000      6.08427e+00
248.000      5.85474e+00
249.000      5.64184e+00
250.000      5.44120e+00
251.000      5.24669e+00
252.000      5.05226e+00
253.000      4.85435e+00
254.000      4.65362e+00
255.000      4.45518e+00
256.000      4.26713e+00
257.000      4.09796e+00
258.000      3.95402e+00
259.000      3.83791e+00
260.000      3.74831e+00
261.000      3.68073e+00
262.000      3.62851e+00
263.000      3.58334e+00
264.000      3.53518e+00
265.000      3.47217e+00
266.000      3.38114e+00
267.000      3.24923e+00
268.000      3.06649e+00
269.000      2.82861e+00
270.000      2.53897e+00
271.000      2.20899e+00
272.000      1.85673e+00
273.000      1.50392e+00
274.000      1.17237e+00
275.000      8.80761e-01
276.000      6.42717e-01
277.000      4.66537e-01
278.000      3.56374e-01
279.000      3.14239e-01
280.000      3.41883e-01
281.000      4.41750e-01
282.000      6.16527e-01
283.000      8.67356e-01
284.000      1.19129e+00
285.000      1.57899e+00
286.000      2.01361e+00
287.000      2.47189e+00
288.000      2.92734e+00
289.000      3.35522e+00
290.000      3.73778e+00
291.000      4.06833e+00
292.000      4.35236e+00
293.000      4.60532e+00
294.000      4.84738e+00
295.000      5.09702e+00
296.000      5.36549e+00
297.000      5.65423e+00
298.000      5.95593e+00
299.000      6.25821e+00
300.000      6.54820e+00
301.000      6.81589e+00
302.000      7.05541e+00
303.000      7.26454e+00
304.000      7.44400e+00
305.000      7.59770e+00
306.000      7.73424e+00
307.000      7.86859e+00
308.000      8.02207e+00
309.000      8.21959e+00
310.000      8.48400e+00
311.000      8.82920e+00
312.000      9.25462e+00
313.000      9.74351e+00
314.000      1.02663e+01
315.000      1.07890e+01
316.000      1.12840e+01
317.000      1.17402e+01
318.000      1.21696e+01
319.000      1.26066e+01
320.000      1.31011e+01
321.000      1.37069e+01
322.000      1.44682e+01
323.000      1.54098e+01
324.000      1.65323e+01
325.000      1.78127e+01
326.000      1.92103e+01
327.000      2.06741e+01
328.000      2.21498e+01
329.000      2.35848e+01
330.000      2.49307e+01
331.000      2.61453e+01
332.000      2.71941e+01
333.000      2.80519e+01
334.000      2.87052e+01
335.000      2.91538e+01
336.000      2.94113e+01
337.000      2.95048e+01
338.000      2.94721e+01
339.000      2.93579e+01
340.000      2.92084e+01
341.000      2.90661e+01
342.000      2.89635e+01
343.000      2.89197e+01
344.000      2.89374e+01
345.000      2.90037e+01
346.000      2.90920e+01
347.000      2.91661e+01
348.000      2.91836e+01
349.000      2.90992e+01
350.000      2.88685e+01
351.000      2.84512e+01
352.000      2.78168e+01
353.000      2.69495e+01
354.000      2.58542e+01
355.000      2.45591e+01
356.000      2.31140e+01
357.000      2.15843e+01
358.000      2.00402e+01
359.000      1.85448e+01
360.000      1.71438e+01
361.000      1.58599e+01
362.000      1.46932e+01
363.000      1.36275e+01
364.000      1.26398e+01
365.000      1.17112e+01
366.000      1.08339e+01
367.000      1.00134e+01
368.000      9.26547e+00
369.000      8.60791e+00
370.000      8.05230e+00
371.000      7.59778e+00
372.000      7.23000e+00
373.000      6.92583e+00
374.000      6.66209e+00
375.000      6.42549e+00
376.000      6.22015e+00
377.000      6.07034e+00
378.000      6.01711e+00
379.000      6.10955e+00
380.000      6.39271e+00
381.000      6.89529e+00
382.000      7.62055e+00
383.000      8.54273e+00
384.000      9.61020e+00
385.000      1.07541e+01
386.000      1.18995e+01
387.000      1.29760e+01
388.000      1.39242e+01
389.000      1.46970e+01
390.000      1.52578e+01
391.000      1.55765e+01
392.000      1.56283e+01
393.000      1.53947e+01
394.000      1.48683e+01
395.000      1.40590e+01
396.000      1.29986e+01
397.000      1.17418e+01
398.000      1.03628e+01
399.000      8.94626e+00
400.000      7.57717e+00
401.000      6.32920e+00
402.000      5.25625e+00
403.000      4.38761e+00
404.000      3.72738e+00
405.000      3.25749e+00
406.000      2.94295e+00
407.000      2.73845e+00
408.000      2.59538e+00
409.000      2.46875e+00
410.000      2.32340e+00
411.000      2.13834e+00
412.000      1.90855e+00
413.000      1.64366e+00
414.000      1.36389e+00
415.000      1.09451e+00
416.000      8.60145e-01
417.000      6.80323e-01
418.000      5.66839e-01
419.000      5.22766e-01
420.000      5.42655e-01
421.000      6.13475e-01
422.000      7.16146e-01
423.000      8.27827e-01
424.000      9.25070e-01
425.000      9.87567e-01
426.000      1.00174e+00
427.000      9.63133e-01
428.000      8.76795e-01
429.000      7.55416e-01
430.000      6.15832e-01
431.000      4.74992e-01
432.000      3.46610e-01
433.000      2.39287e-01
434.000      1.56286e-01
435.000      9.65688e-02
436.000      5.64511e-02
437.000      3.12195e-02
438.000      1.63342e-02
439.000      8.08513e-03
440.000      3.78611e-03
441.000      1.67733e-03
442.000      7.03007e-04
443.000      2.78753e-04
444.000      1.04567e-04
445.000      3.71100e-05
446.000      1.24596e-05
447.000      3.95761e-06
448.000      1.18927e-06
449.000      3.38100e-07
450.000      9.09344e-08
451.000      2.31381e-08
452.000      5.56989e-09
453.000      1.26847e-09
454.000      2.73297e-10
455.000      5.57065e-11
456.000      1.07422e-11
457.000      1.95975e-12
458.000      3.38239e-13
459.000      5.52286e-14
460.000      8.53145e-15
461.000      1.24681e-15
462.000      1.72383e-16
463.000      2.25478e-17
464.000      2.79019e-18
465.000      3.26648e-19
466.000      3.61780e-20
467.000      3.79076e-21
468.000      3.75774e-22
469.000      3.52406e-23
470.000      3.12664e-24
471.000      2.62440e-25
472.000      2.08401e-26
473.000      1.56562e-27
474.000      1.11274e-28
475.000      7.48196e-30
476.000      4.75944e-31
477.000      2.86427e-32
478.000      1.63076e-33
479.000      8.78379e-35
480.000      4.47603e-36
481.000      2.15785e-37
482.000      9.84163e-39
483.000      4.24649e-40
484.000      1.73345e-41
485.000      6.69438e-43
486.000      2.44583e-44
487.000      8.45397e-46
488.000      2.76447e-47
489.000      8.55226e-49
490.000      2.50304e-50
491.000      6.93062e-52
492.000      1.81549e-53
493.000      4.49918e-55
494.000      1.05485e-56
495.000      2.33973e-58
496.000      4.90973e-60
497.000      9.74692e-62
498.000      1.83061e-63
499.000      3.25267e-65
500.000      5.46768e-67
