# Gaussian folded, width=10 cm^-1
# [cm^-1] arbitrary
0.000      3.00000e+00
1.000      2.91796e+00
2.000      2.68508e+00
3.000      2.33749e+00
4.000      1.92514e+00
5.000      1.50000e+00
6.000      1.10570e+00
7.000      7.71085e-01
8.000      5.08727e-01
9.000      3.17530e-01
10.000      1.87500e-01
11.000      1.04746e-01
12.000      5.53610e-02
13.000      2.76864e-02
14.000      1.31156e-02
15.000      5.92853e-03
16.000      2.68274e-03
17.000      1.55293e-03
18.000      1.84396e-03
19.000      3.78397e-03
20.000      8.64650e-03
21.000      1.92319e-02
22.000      4.07125e-02
23.000      8.17630e-02
24.000      1.55720e-01
25.000      2.81255e-01
26.000      4.81800e-01
27.000      7.82858e-01
28.000      1.20668e+00
29.000      1.76453e+00
30.000      2.44814e+00
31.000      3.22291e+00
32.000      4.02620e+00
33.000      4.77320e+00
34.000      5.37052e+00
35.000      5.73507e+00
36.000      5.81295e+00
37.000      5.59248e+00
38.000      5.10711e+00
39.000      4.42711e+00
40.000      3.64302e+00
41.000      2.84621e+00
42.000      2.11231e+00
43.000      1.49176e+00
44.000      1.00839e+00
45.000      6.64860e-01
46.000      4.51656e-01
47.000      3.56594e-01
48.000      3.72136e-01
49.000      4.99004e-01
50.000      7.45489e-01
51.000      1.12264e+00
52.000      1.63632e+00
53.000      2.27797e+00
54.000      3.01694e+00
55.000      3.79727e+00
56.000      4.54141e+00
57.000      5.16142e+00
58.000      5.57551e+00
59.000      5.72562e+00
60.000      5.59079e+00
61.000      5.19198e+00
62.000      4.58697e+00
63.000      3.85720e+00
64.000      3.09083e+00
65.000      2.36722e+00
66.000      1.74685e+00
67.000      1.26818e+00
68.000      9.50569e-01
69.000      8.00445e-01
70.000      8.17491e-01
71.000      9.98138e-01
72.000      1.33523e+00
73.000      1.81440e+00
74.000      2.40927e+00
75.000      3.07832e+00
76.000      3.76582e+00
77.000      4.40832e+00
78.000      4.94564e+00
79.000      5.33390e+00
80.000      5.55680e+00
81.000      5.63176e+00
82.000      5.60876e+00
83.000      5.56212e+00
84.000      5.57695e+00
85.000      5.73355e+00
86.000      6.09326e+00
87.000      6.68848e+00
88.000      7.51852e+00
89.000      8.55142e+00
90.000      9.73020e+00
91.000      1.09817e+01
92.000      1.22255e+01
93.000      1.33822e+01
94.000      1.43790e+01
95.000      1.51549e+01
96.000      1.56637e+01
97.000      1.58762e+01
98.000      1.57814e+01
99.000      1.53874e+01
100.000      1.47209e+01
101.000      1.38273e+01
102.000      1.27695e+01
103.000      1.16248e+01
104.000      1.04797e+01
105.000      9.42054e+00
106.000      8.52274e+00
107.000      7.84119e+00
108.000      7.40495e+00
109.000      7.21853e+00
110.000      7.26944e+00
111.000      7.53880e+00
112.000      8.01034e+00
113.000      8.67390e+00
114.000      9.52177e+00
115.000      1.05399e+01
116.000      1.16982e+01
117.000      1.29446e+01
118.000      1.42064e+01
119.000      1.53990e+01
120.000      1.64391e+01
121.000      1.72591e+01
122.000      1.78181e+01
123.000      1.81062e+01
124.000      1.81432e+01
125.000      1.79708e+01
126.000      1.76417e+01
127.000      1.72093e+01
128.000      1.67202e+01
129.000      1.62098e+01
130.000      1.57029e+01
131.000      1.52163e+01
132.000      1.47623e+01
133.000      1.43503e+01
134.000      1.39868e+01
135.000      1.36741e+01
136.000      1.34083e+01
137.000      1.31779e+01
138.000      1.29646e+01
139.000      1.27452e+01
140.000      1.24958e+01
141.000      1.21955e+01
142.000      1.18303e+01
143.000      1.13965e+01
144.000      1.09009e+01
145.000      1.03599e+01
146.000      9.79590e+00
147.000      9.23303e+00
148.000      8.69293e+00
149.000      8.19167e+00
150.000      7.73853e+00
151.000      7.33618e+00
152.000      6.98166e+00
153.000      6.66760e+00
154.000      6.38342e+00
155.000      6.11682e+00
156.000      5.85599e+00
157.000      5.59239e+00
158.000      5.32350e+00
159.000      5.05419e+00
160.000      4.79562e+00
161.000      4.56121e+00
162.000      4.36063e+00
163.000      4.19421e+00
164.000      4.05030e+00
165.000      3.90757e+00
166.000      3.74213e+00
167.000      3.53729e+00
168.000      3.29236e+00
169.000      3.02704e+00
170.000      2.77952e+00
171.000      2.59846e+00
172.000      2.53146e+00
173.000      2.61311e+00
174.000      2.85607e+00
175.000      3.24726e+00
176.000      3.75011e+00
177.000      4.31216e+00
178.000      4.87640e+00
179.000      5.39368e+00
180.000      5.83332e+00
181.000      6.18923e+00
182.000      6.48004e+00
183.000      6.74303e+00
184.000      7.02363e+00
185.000      7.36317e+00
186.000      7.78818e+00
187.000      8.30365e+00
188.000      8.89193e+00
189.000      9.51710e+00
190.000      1.01334e+01
191.000      1.06957e+01
192.000      1.11686e+01
193.000      1.15325e+01
194.000      1.17856e+01
195.000      1.19407e+01
196.000      1.20197e+01
197.000      1.20474e+01
198.000      1.20467e+01
199.000      1.20361e+01
200.000      1.20298e+01
201.000      1.20391e+01
202.000      1.20733e+01
203.000      1.21402e+01
204.000      1.22452e+01
205.000      1.23887e+01
206.000      1.25642e+01
207.000      1.27563e+01
208.000      1.29410e+01
209.000      1.30882e+01
210.000      1.31662e+01
211.000      1.31487e+01
212.000      1.30220e+01
213.000      1.27909e+01
214.000      1.24805e+01
215.000      1.21346e+01
216.000      1.18084e+01
217.000      1.15585e+01
218.000      1.14323e+01
219.000      1.14606e+01
220.000      1.16543e+01
221.000      1.20060e+01
222.000      1.24956e+01
223.000      1.30974e+01
224.000      1.37848e+01
225.000      1.45327e+01
226.000      1.53154e+01
227.000      1.61033e+01
228.000      1.68581e+01
229.000      1.75325e+01
230.000      1.80729e+01
231.000      1.84280e+01
232.000      1.85595e+01
233.000      1.84517e+01
234.000      1.81175e+01
235.000      1.75976e+01
236.000      1.69525e+01
237.000      1.62502e+01
238.000      1.55527e+01
239.000      1.49052e+01
240.000      1.43316e+01
241.000      1.38360e+01
242.000      1.34099e+01
243.000      1.30400e+01
244.000      1.27155e+01
245.000      1.24307e+01
246.000      1.21838e+01
247.000      1.19720e+01
248.000      1.17872e+01
249.000      1.16135e+01
250.000      1.14286e+01
251.000      1.12086e+01
252.000      1.09341e+01
253.000      1.05958e+01
254.000      1.01966e+01
255.000      9.75025e+00
256.000      9.27714e+00
257.000      8.79952e+00
258.000      8.33687e+00
259.000      7.90327e+00
260.000      7.50639e+00
261.000      7.14803e+00
262.000      6.82575e+00
263.000      6.53495e+00
264.000      6.27111e+00
265.000      6.03148e+00
266.000      5.81534e+00
267.000      5.62264e+00
268.000      5.45137e+00
269.000      5.29483e+00
270.000      5.14044e+00
271.000      4.97121e+00
272.000      4.76998e+00
273.000      4.52520e+00
274.000      4.23608e+00
275.000      3.91499e+00
276.000      3.58591e+00
277.000      3.27908e+00
278.000      3.02367e+00
279.000      2.84068e+00
280.000      2.73846e+00
281.000      2.71207e+00
282.000      2.74619e+00
283.000      2.82045e+00
284.000      2.91529e+00
285.000      3.01663e+00
286.000      3.11833e+00
287.000      3.22195e+00
288.000      3.33426e+00
289.000      3.46326e+00
290.000      3.61376e+00
291.000      3.78388e+00
292.000      3.96322e+00
293.000      4.13348e+00
294.000      4.27136e+00
295.000      4.35331e+00
296.000      4.36118e+00
297.000      4.28748e+00
298.000      4.13910e+00
299.000      3.93810e+00
300.000      3.71895e+00
301.000      3.52200e+00
302.000      3.38475e+00
303.000      3.33308e+00
304.000      3.37556e+00
305.000      3.50324e+00
306.000      3.69537e+00
307.000      3.92947e+00
308.000      4.19178e+00
309.000      4.48398e+00
310.000      4.82306e+00
311.000      5.23419e+00
312.000      5.73920e+00
313.000      6.34520e+00
314.000      7.03800e+00
315.000      7.78282e+00
316.000      8.53221e+00
317.000      9.23829e+00
318.000      9.86513e+00
319.000      1.03974e+01
320.000      1.08430e+01
321.000      1.12298e+01
322.000      1.15976e+01
323.000      1.19895e+01
324.000      1.24429e+01
325.000      1.29840e+01
326.000      1.36250e+01
327.000      1.43643e+01
328.000      1.51878e+01
329.000      1.60731e+01
330.000      1.69926e+01
331.000      1.79178e+01
332.000      1.88232e+01
333.000      1.96892e+01
334.000      2.05044e+01
335.000      2.12648e+01
336.000      2.19718e+01
337.000      2.26275e+01
338.000      2.32305e+01
339.000      2.37708e+01
340.000      2.42288e+01
341.000      2.45763e+01
342.000      2.47809e+01
343.000      2.48124e+01
344.000      2.46495e+01
345.000      2.42845e+01
346.000      2.37250e+01
347.000      2.29923e+01
348.000      2.21160e+01
349.000      2.11276e+01
350.000      2.00546e+01
351.000      1.89166e+01
352.000      1.77270e+01
353.000      1.64973e+01
354.000      1.52441e+01
355.000      1.39947e+01
356.000      1.27888e+01
357.000      1.16740e+01
358.000      1.06967e+01
359.000      9.89167e+00
360.000      9.27281e+00
361.000      8.82984e+00
362.000      8.53084e+00
363.000      8.32972e+00
364.000      8.17563e+00
365.000      8.02144e+00
366.000      7.82955e+00
367.000      7.57456e+00
368.000      7.24368e+00
369.000      6.83600e+00
370.000      6.36163e+00
371.000      5.84061e+00
372.000      5.30159e+00
373.000      4.77983e+00
374.000      4.31430e+00
375.000      3.94437e+00
376.000      3.70667e+00
377.000      3.63268e+00
378.000      3.74719e+00
379.000      4.06703e+00
380.000      4.59937e+00
381.000      5.33852e+00
382.000      6.26172e+00
383.000      7.32477e+00
384.000      8.46005e+00
385.000      9.57889e+00
386.000      1.05797e+01
387.000      1.13611e+01
388.000      1.18381e+01
389.000      1.19564e+01
390.000      1.17022e+01
391.000      1.11045e+01
392.000      1.02287e+01
393.000      9.16467e+00
394.000      8.01074e+00
395.000      6.85886e+00
396.000      5.78305e+00
397.000      4.83314e+00
398.000      4.03379e+00
399.000      3.38761e+00
400.000      2.88055e+00
401.000      2.48799e+00
402.000      2.18049e+00
403.000      1.92861e+00
404.000      1.70691e+00
405.000      1.49673e+00
406.000      1.28777e+00
407.000      1.07796e+00
408.000      8.71797e-01
409.000      6.77523e-01
410.000      5.03896e-01
411.000      3.57548e-01
412.000      2.41503e-01
413.000      1.55019e-01
414.000      9.44488e-02
415.000      5.45720e-02
416.000      2.98830e-02
417.000      1.55009e-02
418.000      7.61403e-03
419.000      3.54071e-03
420.000      1.55849e-03
421.000      6.49227e-04
422.000      2.55932e-04
423.000      9.54677e-05
424.000      3.36953e-05
425.000      1.12525e-05
426.000      3.55531e-06
427.000      1.06280e-06
428.000      3.00579e-07
429.000      8.04262e-08
430.000      2.03594e-08
431.000      4.87592e-09
432.000      1.10477e-09
433.000      2.36815e-10
434.000      4.80248e-11
435.000      9.21388e-12
436.000      1.67239e-12
437.000      2.87179e-13
438.000      4.66537e-14
439.000      7.17031e-15
440.000      1.04258e-15
441.000      1.43415e-16
442.000      1.86638e-17
443.000      2.29786e-18
444.000      2.67648e-19
445.000      2.94932e-20
446.000      3.07467e-21
447.000      3.03244e-22
448.000      2.82946e-23
449.000      2.49766e-24
450.000      2.08583e-25
451.000      1.64795e-26
452.000      1.23176e-27
453.000      8.71015e-29
454.000      5.82697e-30
455.000      3.68789e-31
456.000      2.20816e-32
457.000      1.25083e-33
458.000      6.70328e-35
459.000      3.39854e-36
460.000      1.63010e-37
461.000      7.39700e-39
462.000      3.17551e-40
463.000      1.28970e-41
464.000      4.95544e-43
465.000      1.80133e-44
466.000      6.19472e-46
467.000      2.01543e-47
468.000      6.20342e-49
469.000      1.80639e-50
470.000      4.97635e-52
471.000      1.29696e-53
472.000      3.19787e-55
473.000      7.45955e-57
474.000      1.64620e-58
475.000      3.43692e-60
476.000      6.78849e-62
477.000      1.26851e-63
478.000      2.24251e-65
479.000      3.75052e-67
480.000      5.93426e-69
481.000      8.88299e-71
482.000      1.25797e-72
483.000      1.68538e-74
484.000      2.13620e-76
485.000      2.56156e-78
486.000      2.90593e-80
487.000      3.11877e-82
488.000      3.16664e-84
489.000      3.04181e-86
490.000      2.76428e-88
491.000      2.37657e-90
492.000      1.93302e-92
493.000      1.48744e-94
494.000      1.08283e-96
495.000      7.45762e-99
496.000     4.85911e-101
497.000     2.99523e-103
498.000     1.74672e-105
499.000     9.63677e-108
500.000     5.02989e-110
