# Gaussian folded, width=10 cm^-1
# [cm^-1] arbitrary
0.000      3.00000e+00
1.000      2.91796e+00
2.000      2.68508e+00
3.000      2.33749e+00
4.000      1.92514e+00
5.000      1.50000e+00
6.000      1.10570e+00
7.000      7.71085e-01
8.000      5.08727e-01
9.000      3.17530e-01
10.000      1.87500e-01
11.000      1.04746e-01
12.000      5.53608e-02
13.000      2.76857e-02
14.000      1.31137e-02
15.000      5.92341e-03
16.000      2.66982e-03
17.000      1.52245e-03
18.000      1.77684e-03
19.000      3.64648e-03
20.000      8.38539e-03
21.000      1.87746e-02
22.000      3.99795e-02
23.000      8.07004e-02
24.000      1.54355e-01
25.000      2.79769e-01
26.000      4.80577e-01
27.000      7.82480e-01
28.000      1.20780e+00
29.000      1.76764e+00
30.000      2.45326e+00
31.000      3.22934e+00
32.000      4.03252e+00
33.000      4.77754e+00
34.000      5.37116e+00
35.000      5.73108e+00
36.000      5.80460e+00
37.000      5.58132e+00
38.000      5.09545e+00
39.000      4.41735e+00
40.000      3.63692e+00
41.000      2.84446e+00
42.000      2.11463e+00
43.000      1.49726e+00
44.000      1.01615e+00
45.000      6.74418e-01
46.000      4.63337e-01
47.000      3.71495e-01
48.000      3.91814e-01
49.000      5.24867e-01
50.000      7.77956e-01
51.000      1.16025e+00
52.000      1.67506e+00
53.000      2.31133e+00
54.000      3.03679e+00
55.000      3.79575e+00
56.000      4.51339e+00
57.000      5.10664e+00
58.000      5.49958e+00
59.000      5.63924e+00
60.000      5.50724e+00
61.000      5.12374e+00
62.000      4.54254e+00
63.000      3.83919e+00
64.000      3.09575e+00
65.000      2.38680e+00
66.000      1.77009e+00
67.000      1.28338e+00
68.000      9.46815e-01
69.000      7.68772e-01
70.000      7.51999e-01
71.000      8.97595e-01
72.000      1.20514e+00
73.000      1.66891e+00
74.000      2.27176e+00
75.000      2.97929e+00
76.000      3.73757e+00
77.000      4.47702e+00
78.000      5.12291e+00
79.000      5.61093e+00
80.000      5.90374e+00
81.000      6.00338e+00
82.000      5.95514e+00
83.000      5.84082e+00
84.000      5.76251e+00
85.000      5.82103e+00
86.000      6.09491e+00
87.000      6.62523e+00
88.000      7.40991e+00
89.000      8.40778e+00
90.000      9.55016e+00
91.000      1.07556e+01
92.000      1.19434e+01
93.000      1.30430e+01
94.000      1.39972e+01
95.000      1.47618e+01
96.000      1.53022e+01
97.000      1.55913e+01
98.000      1.56092e+01
99.000      1.53469e+01
100.000      1.48116e+01
101.000      1.40322e+01
102.000      1.30609e+01
103.000      1.19706e+01
104.000      1.08464e+01
105.000      9.77495e+00
106.000      8.83315e+00
107.000      8.08049e+00
108.000      7.55621e+00
109.000      7.28101e+00
110.000      7.26150e+00
111.000      7.49481e+00
112.000      7.97156e+00
113.000      8.67645e+00
114.000      9.58707e+00
115.000      1.06717e+01
116.000      1.18876e+01
117.000      1.31792e+01
118.000      1.44795e+01
119.000      1.57124e+01
120.000      1.67996e+01
121.000      1.76686e+01
122.000      1.82643e+01
123.000      1.85571e+01
124.000      1.85488e+01
125.000      1.82713e+01
126.000      1.77805e+01
127.000      1.71459e+01
128.000      1.64394e+01
129.000      1.57253e+01
130.000      1.50539e+01
131.000      1.44589e+01
132.000      1.39579e+01
133.000      1.35553e+01
134.000      1.32462e+01
135.000      1.30197e+01
136.000      1.28617e+01
137.000      1.27559e+01
138.000      1.26831e+01
139.000      1.26210e+01
140.000      1.25450e+01
141.000      1.24289e+01
142.000      1.22489e+01
143.000      1.19857e+01
144.000      1.16282e+01
145.000      1.11740e+01
146.000      1.06304e+01
147.000      1.00124e+01
148.000      9.34080e+00
149.000      8.63975e+00
150.000      7.93385e+00
151.000      7.24581e+00
152.000      6.59482e+00
153.000      5.99596e+00
154.000      5.46055e+00
155.000      4.99699e+00
156.000      4.61121e+00
157.000      4.30620e+00
158.000      4.08058e+00
159.000      3.92712e+00
160.000      3.83229e+00
161.000      3.77778e+00
162.000      3.74413e+00
163.000      3.71523e+00
164.000      3.68220e+00
165.000      3.64523e+00
166.000      3.61277e+00
167.000      3.59847e+00
168.000      3.61724e+00
169.000      3.68149e+00
170.000      3.79861e+00
171.000      3.96969e+00
172.000      4.18931e+00
173.000      4.44622e+00
174.000      4.72467e+00
175.000      5.00665e+00
176.000      5.27503e+00
177.000      5.51723e+00
178.000      5.72861e+00
179.000      5.91438e+00
180.000      6.08917e+00
181.000      6.27389e+00
182.000      6.49055e+00
183.000      6.75632e+00
184.000      7.07861e+00
185.000      7.45256e+00
186.000      7.86186e+00
187.000      8.28242e+00
188.000      8.68794e+00
189.000      9.05570e+00
190.000      9.37133e+00
191.000      9.63166e+00
192.000      9.84535e+00
193.000      1.00314e+01
194.000      1.02156e+01
195.000      1.04259e+01
196.000      1.06862e+01
197.000      1.10103e+01
198.000      1.13981e+01
199.000      1.18341e+01
200.000      1.22900e+01
201.000      1.27316e+01
202.000      1.31268e+01
203.000      1.34533e+01
204.000      1.37032e+01
205.000      1.38836e+01
206.000      1.40114e+01
207.000      1.41061e+01
208.000      1.41819e+01
209.000      1.42413e+01
210.000      1.42743e+01
211.000      1.42606e+01
212.000      1.41770e+01
213.000      1.40059e+01
214.000      1.37430e+01
215.000      1.34026e+01
216.000      1.30184e+01
217.000      1.26395e+01
218.000      1.23225e+01
219.000      1.21221e+01
220.000      1.20806e+01
221.000      1.22203e+01
222.000      1.25410e+01
223.000      1.30215e+01
224.000      1.36261e+01
225.000      1.43126e+01
226.000      1.50385e+01
227.000      1.57643e+01
228.000      1.64530e+01
229.000      1.70670e+01
230.000      1.75660e+01
231.000      1.79081e+01
232.000      1.80550e+01
233.000      1.79802e+01
234.000      1.76773e+01
235.000      1.71658e+01
236.000      1.64918e+01
237.000      1.57218e+01
238.000      1.49322e+01
239.000      1.41952e+01
240.000      1.35670e+01
241.000      1.30791e+01
242.000      1.27368e+01
243.000      1.25227e+01
244.000      1.24056e+01
245.000      1.23486e+01
246.000      1.23158e+01
247.000      1.22750e+01
248.000      1.21974e+01
249.000      1.20568e+01
250.000      1.18301e+01
251.000      1.15006e+01
252.000      1.10631e+01
253.000      1.05276e+01
254.000      9.91985e+00
255.000      9.27672e+00
256.000      8.63801e+00
257.000      8.03740e+00
258.000      7.49573e+00
259.000      7.01875e+00
260.000      6.59952e+00
261.000      6.22374e+00
262.000      5.87557e+00
263.000      5.54163e+00
264.000      5.21225e+00
265.000      4.88046e+00
266.000      4.54024e+00
267.000      4.18593e+00
268.000      3.81371e+00
269.000      3.42483e+00
270.000      3.02928e+00
271.000      2.64782e+00
272.000      2.31087e+00
273.000      2.05397e+00
274.000      1.91062e+00
275.000      1.90430e+00
276.000      2.04173e+00
277.000      2.30918e+00
278.000      2.67275e+00
279.000      3.08285e+00
280.000      3.48197e+00
281.000      3.81429e+00
282.000      4.03494e+00
283.000      4.11693e+00
284.000      4.05430e+00
285.000      3.86116e+00
286.000      3.56756e+00
287.000      3.21377e+00
288.000      2.84475e+00
289.000      2.50577e+00
290.000      2.23913e+00
291.000      2.08132e+00
292.000      2.05957e+00
293.000      2.18759e+00
294.000      2.46133e+00
295.000      2.85640e+00
296.000      3.32901e+00
297.000      3.82135e+00
298.000      4.27118e+00
299.000      4.62370e+00
300.000      4.84272e+00
301.000      4.91841e+00
302.000      4.86943e+00
303.000      4.73898e+00
304.000      4.58602e+00
305.000      4.47383e+00
306.000      4.45879e+00
307.000      4.58169e+00
308.000      4.86319e+00
309.000      5.30353e+00
310.000      5.88579e+00
311.000      6.58091e+00
312.000      7.35296e+00
313.000      8.16314e+00
314.000      8.97218e+00
315.000      9.74181e+00
316.000      1.04363e+01
317.000      1.10252e+01
318.000      1.14882e+01
319.000      1.18198e+01
320.000      1.20337e+01
321.000      1.21626e+01
322.000      1.22549e+01
323.000      1.23662e+01
324.000      1.25502e+01
325.000      1.28493e+01
326.000      1.32907e+01
327.000      1.38850e+01
328.000      1.46292e+01
329.000      1.55114e+01
330.000      1.65138e+01
331.000      1.76137e+01
332.000      1.87824e+01
333.000      1.99829e+01
334.000      2.11691e+01
335.000      2.22881e+01
336.000      2.32851e+01
337.000      2.41108e+01
338.000      2.47286e+01
339.000      2.51196e+01
340.000      2.52830e+01
341.000      2.52339e+01
342.000      2.49978e+01
343.000      2.46054e+01
344.000      2.40873e+01
345.000      2.34708e+01
346.000      2.27778e+01
347.000      2.20240e+01
348.000      2.12193e+01
349.000      2.03688e+01
350.000      1.94752e+01
351.000      1.85421e+01
352.000      1.75762e+01
353.000      1.65896e+01
354.000      1.55996e+01
355.000      1.46273e+01
356.000      1.36941e+01
357.000      1.28180e+01
358.000      1.20102e+01
359.000      1.12732e+01
360.000      1.06013e+01
361.000      9.98303e+00
362.000      9.40517e+00
363.000      8.85673e+00
364.000      8.33195e+00
365.000      7.83138e+00
366.000      7.36084e+00
367.000      6.92877e+00
368.000      6.54287e+00
369.000      6.20711e+00
370.000      5.91995e+00
371.000      5.67433e+00
372.000      5.45929e+00
373.000      5.26284e+00
374.000      5.07536e+00
375.000      4.89288e+00
376.000      4.71972e+00
377.000      4.57030e+00
378.000      4.46950e+00
379.000      4.45125e+00
380.000      4.55442e+00
381.000      4.81614e+00
382.000      5.26261e+00
383.000      5.89927e+00
384.000      6.70262e+00
385.000      7.61648e+00
386.000      8.55507e+00
387.000      9.41330e+00
388.000      1.00830e+01
389.000      1.04713e+01
390.000      1.05176e+01
391.000      1.02036e+01
392.000      9.55554e+00
393.000      8.63829e+00
394.000      7.54256e+00
395.000      6.36985e+00
396.000      5.21750e+00
397.000      4.16662e+00
398.000      3.27431e+00
399.000      2.57033e+00
400.000      2.05806e+00
401.000      1.71904e+00
402.000      1.52009e+00
403.000      1.42161e+00
404.000      1.38552e+00
405.000      1.38104e+00
406.000      1.38732e+00
407.000      1.39257e+00
408.000      1.39084e+00
409.000      1.37812e+00
410.000      1.34962e+00
411.000      1.29934e+00
412.000      1.22172e+00
413.000      1.11431e+00
414.000      9.79777e-01
415.000      8.26216e-01
416.000      6.65531e-01
417.000      5.10583e-01
418.000      3.72282e-01
419.000      2.57598e-01
420.000      1.68983e-01
421.000      1.05019e-01
422.000      6.18045e-02
423.000      3.44320e-02
424.000      1.81553e-02
425.000      9.05910e-03
426.000      4.27725e-03
427.000      1.91080e-03
428.000      8.07641e-04
429.000      3.22971e-04
430.000      1.22192e-04
431.000      4.37370e-05
432.000      1.48108e-05
433.000      4.74497e-06
434.000      1.43816e-06
435.000      4.12384e-07
436.000      1.11870e-07
437.000      2.87108e-08
438.000      6.97101e-09
439.000      1.60127e-09
440.000      3.47976e-10
441.000      7.15405e-11
442.000      1.39147e-11
443.000      2.56042e-12
444.000      4.45726e-13
445.000      7.34078e-14
446.000      1.14376e-14
447.000      1.68594e-15
448.000      2.35109e-16
449.000      3.10180e-17
450.000      3.87147e-18
451.000      4.57147e-19
452.000      5.10685e-20
453.000      5.39719e-21
454.000      5.39635e-22
455.000      5.10447e-23
456.000      4.56792e-24
457.000      3.86726e-25
458.000      3.09746e-26
459.000      2.34707e-27
460.000      1.68254e-28
461.000      1.14109e-29
462.000      7.32139e-31
463.000      4.44411e-32
464.000      2.55207e-33
465.000      1.38650e-34
466.000      7.12628e-36
467.000      3.46517e-37
468.000      1.59405e-38
469.000      6.93744e-40
470.000      2.85636e-41
471.000      1.11262e-42
472.000      4.10010e-44
473.000      1.42942e-45
474.000      4.71461e-47
475.000      1.47112e-48
476.000      4.34277e-50
477.000      1.21284e-51
478.000      3.20449e-53
479.000      8.00999e-55
480.000      1.89418e-56
481.000      4.23769e-58
482.000      8.96922e-60
483.000      1.79596e-61
484.000      3.40219e-63
485.000      6.09728e-65
486.000      1.03379e-66
487.000      1.65823e-68
488.000      2.51638e-70
489.000      3.61264e-72
490.000      4.90671e-74
491.000      6.30484e-76
492.000      7.66435e-78
493.000      8.81443e-80
494.000      9.59027e-82
495.000      9.87154e-84
496.000      9.61295e-86
497.000      8.85617e-88
498.000      7.71885e-90
499.000      6.36469e-92
500.000      4.96500e-94
