# Gaussian folded, width=10 cm^-1
# [cm^-1] arbitrary
0.000      3.00000e+00
1.000      2.91796e+00
2.000      2.68508e+00
3.000      2.33749e+00
4.000      1.92514e+00
5.000      1.50000e+00
6.000      1.10570e+00
7.000      7.71085e-01
8.000      5.08727e-01
9.000      3.17530e-01
10.000      1.87501e-01
11.000      1.04750e-01
12.000      5.53726e-02
13.000      2.77227e-02
14.000      1.32233e-02
15.000      6.23012e-03
16.000      3.48144e-03
17.000      3.55206e-03
18.000      6.57198e-03
19.000      1.43467e-02
20.000      3.09299e-02
21.000      6.36026e-02
22.000      1.24057e-01
23.000      2.29336e-01
24.000      4.01801e-01
25.000      6.67226e-01
26.000      1.05027e+00
27.000      1.56727e+00
28.000      2.21742e+00
29.000      2.97481e+00
30.000      3.78465e+00
31.000      4.56659e+00
32.000      5.22639e+00
33.000      5.67414e+00
34.000      5.84422e+00
35.000      5.71111e+00
36.000      5.29573e+00
37.000      4.66016e+00
38.000      3.89280e+00
39.000      3.08885e+00
40.000      2.33252e+00
41.000      1.68544e+00
42.000      1.18357e+00
43.000      8.41284e-01
44.000      6.59647e-01
45.000      6.34989e-01
46.000      7.64606e-01
47.000      1.04784e+00
48.000      1.48239e+00
49.000      2.05737e+00
50.000      2.74564e+00
51.000      3.49886e+00
52.000      4.24779e+00
53.000      4.90963e+00
54.000      5.40125e+00
55.000      5.65554e+00
56.000      5.63599e+00
57.000      5.34521e+00
58.000      4.82444e+00
59.000      4.14440e+00
60.000      3.39026e+00
61.000      2.64555e+00
62.000      1.97946e+00
63.000      1.44041e+00
64.000      1.05635e+00
65.000      8.39816e-01
66.000      7.94693e-01
67.000      9.21442e-01
68.000      1.21860e+00
69.000      1.67999e+00
70.000      2.28901e+00
71.000      3.01265e+00
72.000      3.79880e+00
73.000      4.57975e+00
74.000      5.28288e+00
75.000      5.84702e+00
76.000      6.23989e+00
77.000      6.47084e+00
78.000      6.59344e+00
79.000      6.69555e+00
80.000      6.87873e+00
81.000      7.23289e+00
82.000      7.81389e+00
83.000      8.63092e+00
84.000      9.64708e+00
85.000      1.07914e+01
86.000      1.19770e+01
87.000      1.31188e+01
88.000      1.41453e+01
89.000      1.50016e+01
90.000      1.56480e+01
91.000      1.60548e+01
92.000      1.62013e+01
93.000      1.60776e+01
94.000      1.56902e+01
95.000      1.50667e+01
96.000      1.42573e+01
97.000      1.33308e+01
98.000      1.23651e+01
99.000      1.14365e+01
100.000      1.06096e+01
101.000      9.93254e+00
102.000      9.43642e+00
103.000      9.13984e+00
104.000      9.05407e+00
105.000      9.18708e+00
106.000      9.54425e+00
107.000      1.01257e+01
108.000      1.09215e+01
109.000      1.19065e+01
110.000      1.30370e+01
111.000      1.42506e+01
112.000      1.54699e+01
113.000      1.66098e+01
114.000      1.75882e+01
115.000      1.83379e+01
116.000      1.88164e+01
117.000      1.90118e+01
118.000      1.89431e+01
119.000      1.86534e+01
120.000      1.82009e+01
121.000      1.76467e+01
122.000      1.70464e+01
123.000      1.64435e+01
124.000      1.58680e+01
125.000      1.53369e+01
126.000      1.48580e+01
127.000      1.44320e+01
128.000      1.40555e+01
129.000      1.37218e+01
130.000      1.34214e+01
131.000      1.31422e+01
132.000      1.28698e+01
133.000      1.25894e+01
134.000      1.22881e+01
135.000      1.19567e+01
136.000      1.15913e+01
137.000      1.11923e+01
138.000      1.07626e+01
139.000      1.03047e+01
140.000      9.81791e+00
141.000      9.29857e+00
142.000      8.74198e+00
143.000      8.14665e+00
144.000      7.51894e+00
145.000      6.87592e+00
146.000      6.24477e+00
147.000      5.65832e+00
148.000      5.14770e+00
149.000      4.73442e+00
150.000      4.42454e+00
151.000      4.20665e+00
152.000      4.05428e+00
153.000      3.93189e+00
154.000      3.80271e+00
155.000      3.63670e+00
156.000      3.41690e+00
157.000      3.14311e+00
158.000      2.83228e+00
159.000      2.51531e+00
160.000      2.23119e+00
161.000      2.01964e+00
162.000      1.91407e+00
163.000      1.93673e+00
164.000      2.09661e+00
165.000      2.39044e+00
166.000      2.80537e+00
167.000      3.32247e+00
168.000      3.91956e+00
169.000      4.57330e+00
170.000      5.26018e+00
171.000      5.95725e+00
172.000      6.64285e+00
173.000      7.29791e+00
174.000      7.90784e+00
175.000      8.46475e+00
176.000      8.96925e+00
177.000      9.43087e+00
178.000      9.86621e+00
179.000      1.02947e+01
180.000      1.07327e+01
181.000      1.11886e+01
182.000      1.16592e+01
183.000      1.21304e+01
184.000      1.25812e+01
185.000      1.29900e+01
186.000      1.33406e+01
187.000      1.36268e+01
188.000      1.38534e+01
189.000      1.40347e+01
190.000      1.41902e+01
191.000      1.43405e+01
192.000      1.45031e+01
193.000      1.46905e+01
194.000      1.49103e+01
195.000      1.51663e+01
196.000      1.54609e+01
197.000      1.57965e+01
198.000      1.61755e+01
199.000      1.66003e+01
200.000      1.70703e+01
201.000      1.75800e+01
202.000      1.81165e+01
203.000      1.86583e+01
204.000      1.91755e+01
205.000      1.96320e+01
206.000      1.99898e+01
207.000      2.02137e+01
208.000      2.02767e+01
209.000      2.01632e+01
210.000      1.98706e+01
211.000      1.94088e+01
212.000      1.87993e+01
213.000      1.80739e+01
214.000      1.72751e+01
215.000      1.64562e+01
216.000      1.56790e+01
217.000      1.50088e+01
218.000      1.45049e+01
219.000      1.42081e+01
220.000      1.41313e+01
221.000      1.42548e+01
222.000      1.45310e+01
223.000      1.48971e+01
224.000      1.52926e+01
225.000      1.56759e+01
226.000      1.60338e+01
227.000      1.63821e+01
228.000      1.67564e+01
229.000      1.71974e+01
230.000      1.77353e+01
231.000      1.83783e+01
232.000      1.91078e+01
233.000      1.98809e+01
234.000      2.06394e+01
235.000      2.13215e+01
236.000      2.18737e+01
237.000      2.22603e+01
238.000      2.24694e+01
239.000      2.25137e+01
240.000      2.24273e+01
241.000      2.22587e+01
242.000      2.20626e+01
243.000      2.18911e+01
244.000      2.17862e+01
245.000      2.17742e+01
246.000      2.18620e+01
247.000      2.20345e+01
248.000      2.22541e+01
249.000      2.24614e+01
250.000      2.25798e+01
251.000      2.25237e+01
252.000      2.22115e+01
253.000      2.15817e+01
254.000      2.06075e+01
255.000      1.93065e+01
256.000      1.77410e+01
257.000      1.60076e+01
258.000      1.42188e+01
259.000      1.24820e+01
260.000      1.08802e+01
261.000      9.46203e+00
262.000      8.24079e+00
263.000      7.20293e+00
264.000      6.32141e+00
265.000      5.56929e+00
266.000      4.92921e+00
267.000      4.39642e+00
268.000      3.97579e+00
269.000      3.67509e+00
270.000      3.49816e+00
271.000      3.44097e+00
272.000      3.49192e+00
273.000      3.63575e+00
274.000      3.85861e+00
275.000      4.15115e+00
276.000      4.50755e+00
277.000      4.92017e+00
278.000      5.37205e+00
279.000      5.83092e+00
280.000      6.24839e+00
281.000      6.56608e+00
282.000      6.72751e+00
283.000      6.69175e+00
284.000      6.44423e+00
285.000      6.00118e+00
286.000      5.40660e+00
287.000      4.72363e+00
288.000      4.02346e+00
289.000      3.37483e+00
290.000      2.83620e+00
291.000      2.45119e+00
292.000      2.24667e+00
293.000      2.23275e+00
294.000      2.40362e+00
295.000      2.73879e+00
296.000      3.20425e+00
297.000      3.75401e+00
298.000      4.33242e+00
299.000      4.87819e+00
300.000      5.33048e+00
301.000      5.63657e+00
302.000      5.75993e+00
303.000      5.68690e+00
304.000      5.43003e+00
305.000      5.02704e+00
306.000      4.53537e+00
307.000      4.02291e+00
308.000      3.55671e+00
309.000      3.19162e+00
310.000      2.96110e+00
311.000      2.87223e+00
312.000      2.90627e+00
313.000      3.02475e+00
314.000      3.17988e+00
315.000      3.32667e+00
316.000      3.43364e+00
317.000      3.48943e+00
318.000      3.50381e+00
319.000      3.50339e+00
320.000      3.52349e+00
321.000      3.59873e+00
322.000      3.75486e+00
323.000      4.00393e+00
324.000      4.34406e+00
325.000      4.76375e+00
326.000      5.24941e+00
327.000      5.79350e+00
328.000      6.39993e+00
329.000      7.08399e+00
330.000      7.86614e+00
331.000      8.76125e+00
332.000      9.76750e+00
333.000      1.08593e+01
334.000      1.19876e+01
335.000      1.30869e+01
336.000      1.40880e+01
337.000      1.49293e+01
338.000      1.55662e+01
339.000      1.59746e+01
340.000      1.61496e+01
341.000      1.61018e+01
342.000      1.58525e+01
343.000      1.54291e+01
344.000      1.48609e+01
345.000      1.41756e+01
346.000      1.33969e+01
347.000      1.25438e+01
348.000      1.16319e+01
349.000      1.06775e+01
350.000      9.70085e+00
351.000      8.72994e+00
352.000      7.80099e+00
353.000      6.95572e+00
354.000      6.23561e+00
355.000      5.67438e+00
356.000      5.29067e+00
357.000      5.08317e+00
358.000      5.02985e+00
359.000      5.09181e+00
360.000      5.22077e+00
361.000      5.36828e+00
362.000      5.49389e+00
363.000      5.57067e+00
364.000      5.58690e+00
365.000      5.54481e+00
366.000      5.45711e+00
367.000      5.34266e+00
368.000      5.22173e+00
369.000      5.11128e+00
370.000      5.02049e+00
371.000      4.94764e+00
372.000      4.87943e+00
373.000      4.79367e+00
374.000      4.66547e+00
375.000      4.47531e+00
376.000      4.21678e+00
377.000      3.90122e+00
378.000      3.55743e+00
379.000      3.22623e+00
380.000      2.95130e+00
381.000      2.76879e+00
382.000      2.69876e+00
383.000      2.74040e+00
384.000      2.87234e+00
385.000      3.05732e+00
386.000      3.24988e+00
387.000      3.40524e+00
388.000      3.48733e+00
389.000      3.47475e+00
390.000      3.36351e+00
391.000      3.16630e+00
392.000      2.90852e+00
393.000      2.62186e+00
394.000      2.33690e+00
395.000      2.07654e+00
396.000      1.85198e+00
397.000      1.66224e+00
398.000      1.49721e+00
399.000      1.34294e+00
400.000      1.18730e+00
401.000      1.02399e+00
402.000      8.53931e-01
403.000      6.83872e-01
404.000      5.23384e-01
405.000      3.81493e-01
406.000      2.64231e-01
407.000      1.73642e-01
408.000      1.08160e-01
409.000      6.38173e-02
410.000      3.56519e-02
411.000      1.88529e-02
412.000      9.43509e-03
413.000      4.46821e-03
414.000      2.00220e-03
415.000      8.48871e-04
416.000      3.40505e-04
417.000      1.29224e-04
418.000      4.63975e-05
419.000      1.57605e-05
420.000      5.06491e-06
421.000      1.53990e-06
422.000      4.42930e-07
423.000      1.20530e-07
424.000      3.10297e-08
425.000      7.55746e-09
426.000      1.74137e-09
427.000      3.79601e-10
428.000      7.82851e-11
429.000      1.52739e-11
430.000      2.81927e-12
431.000      4.92315e-13
432.000      8.13329e-14
433.000      1.27118e-14
434.000      1.87960e-15
435.000      2.62931e-16
436.000      3.47965e-17
437.000      4.35659e-18
438.000      5.16031e-19
439.000      5.78258e-20
440.000      6.13036e-21
441.000      6.14848e-22
442.000      5.83401e-23
443.000      5.23702e-24
444.000      4.44753e-25
445.000      3.57331e-26
446.000      2.71607e-27
447.000      1.95311e-28
448.000      1.32872e-29
449.000      8.55175e-31
450.000      5.20709e-32
451.000      2.99953e-33
452.000      1.63466e-34
453.000      8.42793e-36
454.000      4.11085e-37
455.000      1.89697e-38
456.000      8.28143e-40
457.000      3.42034e-41
458.000      1.33644e-42
459.000      4.94024e-44
460.000      1.72768e-45
461.000      5.71608e-47
462.000      1.78916e-48
463.000      5.29808e-50
464.000      1.48424e-51
465.000      3.93377e-53
466.000      9.86349e-55
467.000      2.33975e-56
468.000      5.25082e-58
469.000      1.11481e-59
470.000      2.23920e-61
471.000      4.25504e-63
472.000      7.64946e-65
473.000      1.30099e-66
474.000      2.09333e-68
475.000      3.18653e-70
476.000      4.58898e-72
477.000      6.25218e-74
478.000      8.05868e-76
479.000      9.82686e-78
480.000      1.13366e-79
481.000      1.23728e-81
482.000      1.27753e-83
483.000      1.24794e-85
484.000      1.15327e-87
485.000      1.00829e-89
486.000      8.33990e-92
487.000      6.52608e-94
488.000      4.83127e-96
489.000      3.38367e-98
490.000     2.24198e-100
491.000     1.40538e-102
492.000     8.33438e-105
493.000     4.67595e-107
494.000     2.48190e-109
495.000     1.24628e-111
496.000     5.92061e-114
497.000     2.66093e-116
498.000     1.13141e-118
499.000     4.55115e-121
500.000     1.73197e-123
