# Gaussian folded, width=10 cm^-1
# [cm^-1] arbitrary
0.000      3.00000e+00
1.000      2.91796e+00
2.000      2.68508e+00
3.000      2.33749e+00
4.000      1.92514e+00
5.000      1.50000e+00
6.000      1.10570e+00
7.000      7.71085e-01
8.000      5.08727e-01
9.000      3.17530e-01
10.000      1.87500e-01
11.000      1.04746e-01
12.000      5.53610e-02
13.000      2.76864e-02
14.000      1.31157e-02
15.000      5.92874e-03
16.000      2.68359e-03
17.000      1.55592e-03
18.000      1.85336e-03
19.000      3.81091e-03
20.000      8.71747e-03
21.000      1.94046e-02
22.000      4.11024e-02
23.000      8.25804e-02
24.000      1.57313e-01
25.000      2.84146e-01
26.000      4.86676e-01
27.000      7.90496e-01
28.000      1.21776e+00
29.000      1.77939e+00
30.000      2.46642e+00
31.000      3.24334e+00
32.000      4.04662e+00
33.000      4.79079e+00
34.000      5.38244e+00
35.000      5.73914e+00
36.000      5.80831e+00
37.000      5.57984e+00
38.000      5.08859e+00
39.000      4.40567e+00
40.000      3.62167e+00
41.000      2.82737e+00
42.000      2.09744e+00
43.000      1.48132e+00
44.000      1.00216e+00
45.000      6.62308e-01
46.000      4.52329e-01
47.000      3.60391e-01
48.000      3.79391e-01
49.000      5.10402e-01
50.000      7.61824e-01
51.000      1.14444e+00
52.000      1.66343e+00
53.000      2.30916e+00
54.000      3.04972e+00
55.000      3.82801e+00
56.000      4.56591e+00
57.000      5.17575e+00
58.000      5.57697e+00
59.000      5.71357e+00
60.000      5.56694e+00
61.000      5.16012e+00
62.000      4.55225e+00
63.000      3.82520e+00
64.000      3.06677e+00
65.000      2.35571e+00
66.000      1.75195e+00
67.000      1.29368e+00
68.000      9.99942e-01
69.000      8.76121e-01
70.000      9.19264e-01
71.000      1.12107e+00
72.000      1.46783e+00
73.000      1.93818e+00
74.000      2.50064e+00
75.000      3.11292e+00
76.000      3.72479e+00
77.000      4.28436e+00
78.000      4.74680e+00
79.000      5.08327e+00
80.000      5.28777e+00
81.000      5.38003e+00
82.000      5.40382e+00
83.000      5.42054e+00
84.000      5.49952e+00
85.000      5.70630e+00
86.000      6.09159e+00
87.000      6.68312e+00
88.000      7.48231e+00
89.000      8.46643e+00
90.000      9.59452e+00
91.000      1.08143e+01
92.000      1.20672e+01
93.000      1.32897e+01
94.000      1.44123e+01
95.000      1.53603e+01
96.000      1.60569e+01
97.000      1.64330e+01
98.000      1.64393e+01
99.000      1.60590e+01
100.000      1.53151e+01
101.000      1.42713e+01
102.000      1.30247e+01
103.000      1.16920e+01
104.000      1.03926e+01
105.000      9.23262e+00
106.000      8.29071e+00
107.000      7.61163e+00
108.000      7.20661e+00
109.000      7.06161e+00
110.000      7.15054e+00
111.000      7.44888e+00
112.000      7.94280e+00
113.000      8.63019e+00
114.000      9.51319e+00
115.000      1.05853e+01
116.000      1.18188e+01
117.000      1.31578e+01
118.000      1.45201e+01
119.000      1.58076e+01
120.000      1.69222e+01
121.000      1.77811e+01
122.000      1.83290e+01
123.000      1.85440e+01
124.000      1.84379e+01
125.000      1.80511e+01
126.000      1.74457e+01
127.000      1.66962e+01
128.000      1.58801e+01
129.000      1.50691e+01
130.000      1.43213e+01
131.000      1.36779e+01
132.000      1.31609e+01
133.000      1.27761e+01
134.000      1.25155e+01
135.000      1.23617e+01
136.000      1.22913e+01
137.000      1.22770e+01
138.000      1.22906e+01
139.000      1.23047e+01
140.000      1.22943e+01
141.000      1.22377e+01
142.000      1.21167e+01
143.000      1.19162e+01
144.000      1.16253e+01
145.000      1.12385e+01
146.000      1.07591e+01
147.000      1.02008e+01
148.000      9.58863e+00
149.000      8.95536e+00
150.000      8.33561e+00
151.000      7.75885e+00
152.000      7.24380e+00
153.000      6.79634e+00
154.000      6.41136e+00
155.000      6.07724e+00
156.000      5.78118e+00
157.000      5.51342e+00
158.000      5.26938e+00
159.000      5.04965e+00
160.000      4.85823e+00
161.000      4.69991e+00
162.000      4.57722e+00
163.000      4.48778e+00
164.000      4.42292e+00
165.000      4.36788e+00
166.000      4.30432e+00
167.000      4.21426e+00
168.000      4.08482e+00
169.000      3.91218e+00
170.000      3.70366e+00
171.000      3.47742e+00
172.000      3.25967e+00
173.000      3.08041e+00
174.000      2.96850e+00
175.000      2.94736e+00
176.000      3.03192e+00
177.000      3.22745e+00
178.000      3.52984e+00
179.000      3.92724e+00
180.000      4.40233e+00
181.000      4.93502e+00
182.000      5.50514e+00
183.000      6.09497e+00
184.000      6.69105e+00
185.000      7.28499e+00
186.000      7.87270e+00
187.000      8.45220e+00
188.000      9.02068e+00
189.000      9.57189e+00
190.000      1.00954e+01
191.000      1.05781e+01
192.000      1.10081e+01
193.000      1.13793e+01
194.000      1.16945e+01
195.000      1.19658e+01
196.000      1.22121e+01
197.000      1.24533e+01
198.000      1.27056e+01
199.000      1.29768e+01
200.000      1.32651e+01
201.000      1.35613e+01
202.000      1.38511e+01
203.000      1.41197e+01
204.000      1.43542e+01
205.000      1.45454e+01
206.000      1.46876e+01
207.000      1.47775e+01
208.000      1.48126e+01
209.000      1.47893e+01
210.000      1.47034e+01
211.000      1.45514e+01
212.000      1.43328e+01
213.000      1.40534e+01
214.000      1.37264e+01
215.000      1.33719e+01
216.000      1.30153e+01
217.000      1.26842e+01
218.000      1.24062e+01
219.000      1.22079e+01
220.000      1.21132e+01
221.000      1.21434e+01
222.000      1.23141e+01
223.000      1.26325e+01
224.000      1.30940e+01
225.000      1.36797e+01
226.000      1.43561e+01
227.000      1.50776e+01
228.000      1.57909e+01
229.000      1.64406e+01
230.000      1.69756e+01
231.000      1.73540e+01
232.000      1.75465e+01
233.000      1.75389e+01
234.000      1.73324e+01
235.000      1.69438e+01
236.000      1.64041e+01
237.000      1.57565e+01
238.000      1.50526e+01
239.000      1.43463e+01
240.000      1.36872e+01
241.000      1.31140e+01
242.000      1.26498e+01
243.000      1.23013e+01
244.000      1.20607e+01
245.000      1.19091e+01
246.000      1.18215e+01
247.000      1.17696e+01
248.000      1.17245e+01
249.000      1.16586e+01
250.000      1.15479e+01
251.000      1.13745e+01
252.000      1.11292e+01
253.000      1.08129e+01
254.000      1.04361e+01
255.000      1.00169e+01
256.000      9.57740e+00
257.000      9.14040e+00
258.000      8.72631e+00
259.000      8.35130e+00
260.000      8.02615e+00
261.000      7.75561e+00
262.000      7.53792e+00
263.000      7.36465e+00
264.000      7.22105e+00
265.000      7.08736e+00
266.000      6.94132e+00
267.000      6.76141e+00
268.000      6.53021e+00
269.000      6.23687e+00
270.000      5.87795e+00
271.000      5.45661e+00
272.000      4.98098e+00
273.000      4.46242e+00
274.000      3.91459e+00
275.000      3.35334e+00
276.000      2.79680e+00
277.000      2.26492e+00
278.000      1.77810e+00
279.000      1.35494e+00
280.000      1.01005e+00
281.000      7.52356e-01
282.000      5.84549e-01
283.000      5.03460e-01
284.000      5.00966e-01
285.000      5.65119e-01
286.000      6.81466e-01
287.000      8.34832e-01
288.000      1.01178e+00
289.000      1.20344e+00
290.000      1.40789e+00
291.000      1.63051e+00
292.000      1.88160e+00
293.000      2.17087e+00
294.000      2.50058e+00
295.000      2.85973e+00
296.000      3.22209e+00
297.000      3.54989e+00
298.000      3.80261e+00
299.000      3.94856e+00
300.000      3.97542e+00
301.000      3.89614e+00
302.000      3.74819e+00
303.000      3.58613e+00
304.000      3.46995e+00
305.000      3.45261e+00
306.000      3.57023e+00
307.000      3.83722e+00
308.000      4.24673e+00
309.000      4.77513e+00
310.000      5.38819e+00
311.000      6.04687e+00
312.000      6.71161e+00
313.000      7.34526e+00
314.000      7.91581e+00
315.000      8.39952e+00
316.000      8.78467e+00
317.000      9.07473e+00
318.000      9.28936e+00
319.000      9.46205e+00
320.000      9.63459e+00
321.000      9.84951e+00
322.000      1.01430e+01
323.000      1.05401e+01
324.000      1.10541e+01
325.000      1.16881e+01
326.000      1.24399e+01
327.000      1.33055e+01
328.000      1.42811e+01
329.000      1.53632e+01
330.000      1.65449e+01
331.000      1.78131e+01
332.000      1.91436e+01
333.000      2.04998e+01
334.000      2.18315e+01
335.000      2.30785e+01
336.000      2.41764e+01
337.000      2.50646e+01
338.000      2.56959e+01
339.000      2.60449e+01
340.000      2.61122e+01
341.000      2.59240e+01
342.000      2.55262e+01
343.000      2.49744e+01
344.000      2.43240e+01
345.000      2.36205e+01
346.000      2.28939e+01
347.000      2.21575e+01
348.000      2.14094e+01
349.000      2.06377e+01
350.000      1.98269e+01
351.000      1.89649e+01
352.000      1.80487e+01
353.000      1.70879e+01
354.000      1.61046e+01
355.000      1.51293e+01
356.000      1.41942e+01
357.000      1.33261e+01
358.000      1.25399e+01
359.000      1.18365e+01
360.000      1.12043e+01
361.000      1.06244e+01
362.000      1.00774e+01
363.000      9.54956e+00
364.000      9.03678e+00
365.000      8.54464e+00
366.000      8.08542e+00
367.000      7.67301e+00
368.000      7.31723e+00
369.000      7.01939e+00
370.000      6.77017e+00
371.000      6.55093e+00
372.000      6.33825e+00
373.000      6.11097e+00
374.000      5.85745e+00
375.000      5.58074e+00
376.000      5.29984e+00
377.000      5.04656e+00
378.000      4.85936e+00
379.000      4.77656e+00
380.000      4.83066e+00
381.000      5.04440e+00
382.000      5.42798e+00
383.000      5.97594e+00
384.000      6.66361e+00
385.000      7.44425e+00
386.000      8.24899e+00
387.000      8.99206e+00
388.000      9.58170e+00
389.000      9.93525e+00
390.000      9.99466e+00
391.000      9.73820e+00
392.000      9.18473e+00
393.000      8.38971e+00
394.000      7.43401e+00
395.000      6.40919e+00
396.000      5.40275e+00
397.000      4.48659e+00
398.000      3.71000e+00
399.000      3.09750e+00
400.000      2.65032e+00
401.000      2.35063e+00
402.000      2.16730e+00
403.000      2.06222e+00
404.000      1.99647e+00
405.000      1.93571e+00
406.000      1.85399e+00
407.000      1.73602e+00
408.000      1.57748e+00
409.000      1.38375e+00
410.000      1.16728e+00
411.000      9.44163e-01
412.000      7.30569e-01
413.000      5.39731e-01
414.000      3.80094e-01
415.000      2.54804e-01
416.000      1.62414e-01
417.000      9.83391e-02
418.000      5.65155e-02
419.000      3.08081e-02
420.000      1.59216e-02
421.000      7.79738e-03
422.000      3.61743e-03
423.000      1.58935e-03
424.000      6.61172e-04
425.000      2.60380e-04
426.000      9.70600e-05
427.000      3.42424e-05
428.000      1.14325e-05
429.000      3.61198e-06
430.000      1.07982e-06
431.000      3.05449e-07
432.000      8.17516e-08
433.000      2.07020e-08
434.000      4.95996e-09
435.000      1.12431e-09
436.000      2.41119e-10
437.000      4.89226e-11
438.000      9.39113e-12
439.000      1.70550e-12
440.000      2.93030e-13
441.000      4.76317e-14
442.000      7.32490e-15
443.000      1.06568e-15
444.000      1.46681e-16
445.000      1.91004e-17
446.000      2.35303e-18
447.000      2.74242e-19
448.000      3.02383e-20
449.000      3.15427e-21
450.000      3.11286e-22
451.000      2.90628e-23
452.000      2.56705e-24
453.000      2.14511e-25
454.000      1.69583e-26
455.000      1.26833e-27
456.000      8.97427e-29
457.000      6.00737e-30
458.000      3.80441e-31
459.000      2.27934e-32
460.000      1.29195e-33
461.000      6.92792e-35
462.000      3.51461e-36
463.000      1.68682e-37
464.000      7.65909e-39
465.000      3.29006e-40
466.000      1.33705e-41
467.000      5.14056e-43
468.000      1.86978e-44
469.000      6.43408e-46
470.000      2.09460e-47
471.000      6.45110e-49
472.000      1.87968e-50
473.000      5.18145e-52
474.000      1.35125e-53
475.000      3.33380e-55
476.000      7.78143e-57
477.000      1.71829e-58
478.000      3.58965e-60
479.000      7.09456e-62
480.000      1.32653e-63
481.000      2.34652e-65
482.000      3.92691e-67
483.000      6.21719e-69
484.000      9.31227e-71
485.000      1.31957e-72
486.000      1.76901e-74
487.000      2.24359e-76
488.000      2.69200e-78
489.000      3.05580e-80
490.000      3.28165e-82
491.000      3.33408e-84
492.000      3.20463e-86
493.000      2.91405e-88
494.000      2.50689e-90
495.000      2.04028e-92
496.000      1.57095e-94
497.000      1.14433e-96
498.000      7.88604e-99
499.000     5.14143e-101
500.000     3.17122e-103
