# Gaussian folded, width=10 cm^-1
# [cm^-1] arbitrary
0.000      3.00000e+00
1.000      2.91796e+00
2.000      2.68508e+00
3.000      2.33749e+00
4.000      1.92514e+00
5.000      1.50000e+00
6.000      1.10570e+00
7.000      7.71085e-01
8.000      5.08727e-01
9.000      3.17531e-01
10.000      1.87506e-01
11.000      1.04765e-01
12.000      5.54204e-02
13.000      2.78624e-02
14.000      1.36091e-02
15.000      7.23738e-03
16.000      5.96545e-03
17.000      9.33697e-03
18.000      1.92900e-02
19.000      4.07307e-02
20.000      8.25509e-02
21.000      1.58793e-01
22.000      2.89355e-01
23.000      4.99346e-01
24.000      8.16082e-01
25.000      1.26311e+00
26.000      1.85157e+00
27.000      2.57066e+00
28.000      3.38044e+00
29.000      4.21056e+00
30.000      4.96778e+00
31.000      5.55207e+00
32.000      5.87806e+00
33.000      5.89546e+00
34.000      5.60190e+00
35.000      5.04364e+00
36.000      4.30413e+00
37.000      3.48456e+00
38.000      2.68310e+00
39.000      1.97910e+00
40.000      1.42608e+00
41.000      1.05331e+00
42.000      8.72997e-01
43.000      8.88427e-01
44.000      1.09899e+00
45.000      1.49975e+00
46.000      2.07585e+00
47.000      2.79440e+00
48.000      3.59807e+00
49.000      4.40489e+00
50.000      5.11657e+00
51.000      5.63509e+00
52.000      5.88312e+00
53.000      5.82214e+00
54.000      5.46185e+00
55.000      4.85771e+00
56.000      4.09732e+00
57.000      3.28052e+00
58.000      2.49971e+00
59.000      1.82620e+00
60.000      1.30515e+00
61.000      9.58579e-01
62.000      7.93061e-01
63.000      8.07830e-01
64.000      9.99766e-01
65.000      1.36355e+00
66.000      1.88746e+00
67.000      2.54738e+00
68.000      3.30251e+00
69.000      4.09623e+00
70.000      4.86376e+00
71.000      5.54580e+00
72.000      6.10426e+00
73.000      6.53496e+00
74.000      6.87211e+00
75.000      7.18222e+00
76.000      7.54843e+00
77.000      8.04999e+00
78.000      8.74301e+00
79.000      9.64806e+00
80.000      1.07471e+01
81.000      1.19888e+01
82.000      1.32991e+01
83.000      1.45919e+01
84.000      1.57784e+01
85.000      1.67737e+01
86.000      1.75030e+01
87.000      1.79084e+01
88.000      1.79564e+01
89.000      1.76447e+01
90.000      1.70045e+01
91.000      1.60975e+01
92.000      1.50069e+01
93.000      1.38254e+01
94.000      1.26449e+01
95.000      1.15493e+01
96.000      1.06127e+01
97.000      9.90001e+00
98.000      9.46682e+00
99.000      9.35652e+00
100.000      9.59381e+00
101.000      1.01774e+01
102.000      1.10753e+01
103.000      1.22250e+01
104.000      1.35398e+01
105.000      1.49188e+01
106.000      1.62578e+01
107.000      1.74594e+01
108.000      1.84407e+01
109.000      1.91423e+01
110.000      1.95356e+01
111.000      1.96297e+01
112.000      1.94737e+01
113.000      1.91508e+01
114.000      1.87621e+01
115.000      1.84047e+01
116.000      1.81475e+01
117.000      1.80139e+01
118.000      1.79775e+01
119.000      1.79716e+01
120.000      1.79103e+01
121.000      1.77144e+01
122.000      1.73337e+01
123.000      1.67600e+01
124.000      1.60268e+01
125.000      1.51991e+01
126.000      1.43550e+01
127.000      1.35664e+01
128.000      1.28835e+01
129.000      1.23253e+01
130.000      1.18790e+01
131.000      1.15060e+01
132.000      1.11533e+01
133.000      1.07665e+01
134.000      1.03020e+01
135.000      9.73471e+00
136.000      9.06197e+00
137.000      8.30226e+00
138.000      7.49024e+00
139.000      6.66955e+00
140.000      5.88476e+00
141.000      5.17365e+00
142.000      4.56092e+00
143.000      4.05426e+00
144.000      3.64381e+00
145.000      3.30532e+00
146.000      3.00687e+00
147.000      2.71730e+00
148.000      2.41415e+00
149.000      2.08874e+00
150.000      1.74686e+00
151.000      1.40543e+00
152.000      1.08678e+00
153.000      8.12900e-01
154.000      6.01645e-01
155.000      4.65677e-01
156.000      4.13796e-01
157.000      4.53308e-01
158.000      5.92014e-01
159.000      8.38763e-01
160.000      1.20224e+00
161.000      1.68835e+00
162.000      2.29678e+00
163.000      3.01769e+00
164.000      3.82915e+00
165.000      4.69621e+00
166.000      5.57294e+00
167.000      6.40839e+00
168.000      7.15718e+00
169.000      7.79332e+00
170.000      8.32340e+00
171.000      8.79353e+00
172.000      9.28460e+00
173.000      9.89385e+00
174.000      1.07061e+01
175.000      1.17634e+01
176.000      1.30437e+01
177.000      1.44581e+01
178.000      1.58674e+01
179.000      1.71159e+01
180.000      1.80694e+01
181.000      1.86472e+01
182.000      1.88402e+01
183.000      1.87086e+01
184.000      1.83636e+01
185.000      1.79370e+01
186.000      1.75461e+01
187.000      1.72649e+01
188.000      1.71081e+01
189.000      1.70346e+01
190.000      1.69714e+01
191.000      1.68526e+01
192.000      1.66601e+01
193.000      1.64519e+01
194.000      1.63650e+01
195.000      1.65889e+01
196.000      1.73144e+01
197.000      1.86728e+01
198.000      2.06856e+01
199.000      2.32405e+01
200.000      2.61022e+01
201.000      2.89571e+01
202.000      3.14790e+01
203.000      3.33969e+01
204.000      3.45476e+01
205.000      3.48996e+01
206.000      3.45416e+01
207.000      3.36444e+01
208.000      3.24052e+01
209.000      3.09939e+01
210.000      2.95174e+01
211.000      2.80104e+01
212.000      2.64550e+01
213.000      2.48162e+01
214.000      2.30785e+01
215.000      2.12662e+01
216.000      1.94409e+01
217.000      1.76784e+01
218.000      1.60381e+01
219.000      1.45428e+01
220.000      1.31758e+01
221.000      1.19003e+01
222.000      1.06879e+01
223.000      9.54746e+00
224.000      8.53822e+00
225.000      7.76549e+00
226.000      7.35853e+00
227.000      7.43885e+00
228.000      8.08780e+00
229.000      9.32156e+00
230.000      1.10792e+01
231.000      1.32262e+01
232.000      1.55739e+01
233.000      1.79107e+01
234.000      2.00414e+01
235.000      2.18248e+01
236.000      2.32005e+01
237.000      2.41984e+01
238.000      2.49250e+01
239.000      2.55299e+01
240.000      2.61616e+01
241.000      2.69272e+01
242.000      2.78663e+01
243.000      2.89497e+01
244.000      3.00979e+01
245.000      3.12114e+01
246.000      3.21973e+01
247.000      3.29819e+01
248.000      3.35069e+01
249.000      3.37157e+01
250.000      3.35415e+01
251.000      3.29087e+01
252.000      3.17496e+01
253.000      3.00312e+01
254.000      2.77795e+01
255.000      2.50897e+01
256.000      2.21167e+01
257.000      1.90473e+01
258.000      1.60656e+01
259.000      1.33214e+01
260.000      1.09125e+01
261.000      8.88267e+00
262.000      7.23315e+00
263.000      5.94002e+00
264.000      4.97121e+00
265.000      4.29777e+00
266.000      3.89870e+00
267.000      3.76077e+00
268.000      3.87602e+00
269.000      4.23938e+00
270.000      4.84682e+00
271.000      5.69373e+00
272.000      6.77215e+00
273.000      8.06586e+00
274.000      9.54333e+00
275.000      1.11497e+01
276.000      1.28005e+01
277.000      1.43803e+01
278.000      1.57501e+01
279.000      1.67630e+01
280.000      1.72884e+01
281.000      1.72371e+01
282.000      1.65824e+01
283.000      1.53694e+01
284.000      1.37092e+01
285.000      1.17598e+01
286.000      9.69951e+00
287.000      7.69788e+00
288.000      5.89351e+00
289.000      4.38080e+00
290.000      3.20715e+00
291.000      2.37834e+00
292.000      1.86859e+00
293.000      1.63167e+00
294.000      1.61062e+00
295.000      1.74484e+00
296.000      1.97482e+00
297.000      2.24530e+00
298.000      2.50819e+00
299.000      2.72581e+00
300.000      2.87438e+00
301.000      2.94673e+00
302.000      2.95294e+00
303.000      2.91756e+00
304.000      2.87331e+00
305.000      2.85233e+00
306.000      2.87745e+00
307.000      2.95602e+00
308.000      3.07834e+00
309.000      3.22095e+00
310.000      3.35346e+00
311.000      3.44672e+00
312.000      3.47982e+00
313.000      3.44428e+00
314.000      3.34498e+00
315.000      3.19792e+00
316.000      3.02582e+00
317.000      2.85257e+00
318.000      2.69757e+00
319.000      2.57136e+00
320.000      2.47332e+00
321.000      2.39234e+00
322.000      2.31028e+00
323.000      2.20734e+00
324.000      2.06779e+00
325.000      1.88434e+00
326.000      1.66001e+00
327.000      1.40705e+00
328.000      1.14351e+00
329.000      8.88765e-01
330.000      6.59347e-01
331.000      4.66213e-01
332.000      3.13831e-01
333.000      2.00929e-01
334.000      1.22260e-01
335.000      7.06544e-02
336.000      3.87580e-02
337.000      2.01717e-02
338.000      9.95630e-03
339.000      4.65880e-03
340.000      2.06603e-03
341.000      8.68093e-04
342.000      3.45514e-04
343.000      1.30242e-04
344.000      4.64885e-05
345.000      1.57105e-05
346.000      5.02613e-06
347.000      1.52205e-06
348.000      4.36254e-07
349.000      1.18341e-07
350.000      3.03798e-08
351.000      7.38023e-09
352.000      1.69657e-09
353.000      3.69038e-10
354.000      7.59552e-11
355.000      1.47917e-11
356.000      2.72550e-12
357.000      4.75151e-13
358.000      7.83734e-14
359.000      1.22307e-14
360.000      1.80582e-15
361.000      2.52252e-16
362.000      3.33373e-17
363.000      4.16828e-18
364.000      4.93074e-19
365.000      5.51816e-20
366.000      5.84256e-21
367.000      5.85242e-22
368.000      5.54615e-23
369.000      4.97244e-24
370.000      4.21764e-25
371.000      3.38447e-26
372.000      2.56940e-27
373.000      1.84541e-28
374.000      1.25393e-29
375.000      8.06069e-31
376.000      4.90220e-32
377.000      2.82051e-33
378.000      1.53527e-34
379.000      7.90602e-36
380.000      3.85168e-37
381.000      1.77526e-38
382.000      7.74087e-40
383.000      3.19328e-41
384.000      1.24624e-42
385.000      4.60133e-44
386.000      1.60725e-45
387.000      5.31132e-47
388.000      1.66050e-48
389.000      4.91124e-50
390.000      1.37424e-51
391.000      3.63791e-53
392.000      9.11084e-55
393.000      2.15865e-56
394.000      4.83866e-58
395.000      1.02609e-59
396.000      2.05855e-61
397.000      3.90712e-63
398.000      7.01567e-65
399.000      1.19179e-66
400.000      1.91534e-68
401.000      2.91214e-70
402.000      4.18885e-72
403.000      5.70027e-74
404.000      7.33861e-76
405.000      8.93819e-78
406.000      1.02992e-79
407.000      1.12273e-81
408.000      1.15788e-83
409.000      1.12972e-85
410.000      1.04278e-87
411.000      9.10614e-90
412.000      7.52304e-92
413.000      5.87990e-94
414.000      4.34775e-96
415.000      3.04142e-98
416.000     2.01282e-100
417.000     1.26024e-102
418.000     7.46478e-105
419.000     4.18311e-107
420.000     2.21768e-109
421.000     1.11229e-111
422.000     5.27779e-114
423.000     2.36921e-116
424.000     1.00618e-118
425.000     4.04262e-121
426.000     1.53662e-123
427.000     5.52575e-126
428.000     1.87989e-128
429.000     6.05048e-131
430.000     1.84232e-133
431.000     5.30712e-136
432.000     1.44634e-138
433.000     3.72906e-141
434.000     9.09589e-144
435.000     2.09898e-146
436.000     4.58237e-149
437.000     9.46432e-152
438.000     1.84929e-154
439.000     3.41854e-157
440.000     5.97850e-160
441.000     9.89149e-163
442.000     1.54828e-165
443.000     2.29273e-168
444.000     3.21200e-171
445.000     4.25712e-174
446.000     5.33793e-177
447.000     6.33210e-180
448.000     7.10625e-183
449.000     7.54486e-186
450.000     7.57842e-189
451.000     7.20152e-192
452.000     6.47422e-195
453.000     5.50640e-198
454.000     4.43064e-201
455.000     3.37273e-204
456.000     2.42893e-207
457.000     1.65488e-210
458.000     1.06668e-213
459.000     6.50461e-217
460.000     3.75254e-220
461.000     2.04808e-223
462.000     1.05751e-226
463.000     5.16586e-230
464.000     2.38735e-233
465.000     1.04378e-236
466.000     4.31736e-240
467.000     1.68945e-243
468.000     6.25446e-247
469.000     2.19054e-250
470.000     7.25825e-254
471.000     2.27525e-257
472.000     6.74753e-261
473.000     1.89312e-264
474.000     5.02490e-268
475.000     1.26181e-271
476.000     2.99765e-275
477.000     6.73727e-279
478.000     1.43253e-282
479.000     2.88166e-286
480.000     5.48402e-290
481.000     9.87352e-294
482.000     1.68176e-297
483.000     2.71002e-301
484.000     4.13141e-305
485.000     5.95857e-309
486.000     8.13024e-313
487.000     1.04950e-316
488.000     1.28161e-320
489.000      0.00000e+00
490.000      0.00000e+00
491.000      0.00000e+00
492.000      0.00000e+00
493.000      0.00000e+00
494.000      0.00000e+00
495.000      0.00000e+00
496.000      0.00000e+00
497.000      0.00000e+00
498.000      0.00000e+00
499.000      0.00000e+00
500.000      0.00000e+00
