# Gaussian folded, width=10 cm^-1
# [cm^-1] arbitrary
0.000      3.00000e+00
1.000      2.91796e+00
2.000      2.68508e+00
3.000      2.33749e+00
4.000      1.92514e+00
5.000      1.50000e+00
6.000      1.10570e+00
7.000      7.71085e-01
8.000      5.08727e-01
9.000      3.17530e-01
10.000      1.87500e-01
11.000      1.04746e-01
12.000      5.53607e-02
13.000      2.76852e-02
14.000      1.31119e-02
15.000      5.91792e-03
16.000      2.65403e-03
17.000      1.47983e-03
18.000      1.66884e-03
19.000      3.38972e-03
20.000      7.81344e-03
21.000      1.75823e-02
22.000      3.76582e-02
23.000      7.64892e-02
24.000      1.47261e-01
25.000      2.68722e-01
26.000      4.64795e-01
27.000      7.62033e-01
28.000      1.18427e+00
29.000      1.74463e+00
30.000      2.43635e+00
31.000      3.22526e+00
32.000      4.04747e+00
33.000      4.81499e+00
34.000      5.43000e+00
35.000      5.80492e+00
36.000      5.88271e+00
37.000      5.65117e+00
38.000      5.14602e+00
39.000      4.44193e+00
40.000      3.63452e+00
41.000      2.81935e+00
42.000      2.07440e+00
43.000      1.45019e+00
44.000      9.68979e-01
45.000      6.30885e-01
46.000      4.23822e-01
47.000      3.33525e-01
48.000      3.51141e-01
49.000      4.76901e-01
50.000      7.19417e-01
51.000      1.09086e+00
52.000      1.59895e+00
53.000      2.23756e+00
54.000      2.97848e+00
55.000      3.76747e+00
56.000      4.52726e+00
57.000      5.16814e+00
58.000      5.60471e+00
59.000      5.77430e+00
60.000      5.65167e+00
61.000      5.25520e+00
62.000      4.64255e+00
63.000      3.89722e+00
64.000      3.11068e+00
65.000      2.36542e+00
66.000      1.72367e+00
67.000      1.22387e+00
68.000      8.84001e-01
69.000      7.09024e-01
70.000      6.98625e-01
71.000      8.52103e-01
72.000      1.16857e+00
73.000      1.64253e+00
74.000      2.25671e+00
75.000      2.97548e+00
76.000      3.74228e+00
77.000      4.48393e+00
78.000      5.12219e+00
79.000      5.59048e+00
80.000      5.85118e+00
81.000      5.90821e+00
82.000      5.81050e+00
83.000      5.64470e+00
84.000      5.51855e+00
85.000      5.53914e+00
86.000      5.79179e+00
87.000      6.32462e+00
88.000      7.14211e+00
89.000      8.20817e+00
90.000      9.45613e+00
91.000      1.08017e+01
92.000      1.21547e+01
93.000      1.34270e+01
94.000      1.45366e+01
95.000      1.54102e+01
96.000      1.59868e+01
97.000      1.62226e+01
98.000      1.60982e+01
99.000      1.56239e+01
100.000      1.48419e+01
101.000      1.38222e+01
102.000      1.26538e+01
103.000      1.14322e+01
104.000      1.02477e+01
105.000      9.17538e+00
106.000      8.26998e+00
107.000      7.56652e+00
108.000      7.08451e+00
109.000      6.83465e+00
110.000      6.82495e+00
111.000      7.06373e+00
112.000      7.55823e+00
113.000      8.30886e+00
114.000      9.30120e+00
115.000      1.04990e+01
116.000      1.18414e+01
117.000      1.32465e+01
118.000      1.46215e+01
119.000      1.58767e+01
120.000      1.69400e+01
121.000      1.77667e+01
122.000      1.83424e+01
123.000      1.86784e+01
124.000      1.88016e+01
125.000      1.87432e+01
126.000      1.85300e+01
127.000      1.81811e+01
128.000      1.77087e+01
129.000      1.71236e+01
130.000      1.64408e+01
131.000      1.56832e+01
132.000      1.48832e+01
133.000      1.40800e+01
134.000      1.33148e+01
135.000      1.26251e+01
136.000      1.20397e+01
137.000      1.15756e+01
138.000      1.12377e+01
139.000      1.10210e+01
140.000      1.09142e+01
141.000      1.09022e+01
142.000      1.09674e+01
143.000      1.10888e+01
144.000      1.12403e+01
145.000      1.13892e+01
146.000      1.14977e+01
147.000      1.15259e+01
148.000      1.14378e+01
149.000      1.12074e+01
150.000      1.08235e+01
151.000      1.02914e+01
152.000      9.63235e+00
153.000      8.87962e+00
154.000      8.07301e+00
155.000      7.25273e+00
156.000      6.45392e+00
157.000      5.70283e+00
158.000      5.01561e+00
159.000      4.39961e+00
160.000      3.85669e+00
161.000      3.38726e+00
162.000      2.99354e+00
163.000      2.68093e+00
164.000      2.45707e+00
165.000      2.32890e+00
166.000      2.29896e+00
167.000      2.36251e+00
168.000      2.50661e+00
169.000      2.71173e+00
170.000      2.95515e+00
171.000      3.21512e+00
172.000      3.47425e+00
173.000      3.72127e+00
174.000      3.95123e+00
175.000      4.16455e+00
176.000      4.36559e+00
177.000      4.56115e+00
178.000      4.75920e+00
179.000      4.96776e+00
180.000      5.19434e+00
181.000      5.44595e+00
182.000      5.72964e+00
183.000      6.05286e+00
184.000      6.42274e+00
185.000      6.84374e+00
186.000      7.31407e+00
187.000      7.82239e+00
188.000      8.34662e+00
189.000      8.85657e+00
190.000      9.31993e+00
191.000      9.71035e+00
192.000      1.00147e+01
193.000      1.02372e+01
194.000      1.03983e+01
195.000      1.05299e+01
196.000      1.06667e+01
197.000      1.08377e+01
198.000      1.10588e+01
199.000      1.13295e+01
200.000      1.16336e+01
201.000      1.19442e+01
202.000      1.22310e+01
203.000      1.24684e+01
204.000      1.26423e+01
205.000      1.27528e+01
206.000      1.28139e+01
207.000      1.28488e+01
208.000      1.28829e+01
209.000      1.29376e+01
210.000      1.30244e+01
211.000      1.31437e+01
212.000      1.32853e+01
213.000      1.34324e+01
214.000      1.35663e+01
215.000      1.36720e+01
216.000      1.37421e+01
217.000      1.37795e+01
218.000      1.37970e+01
219.000      1.38143e+01
220.000      1.38525e+01
221.000      1.39288e+01
222.000      1.40515e+01
223.000      1.42185e+01
224.000      1.44183e+01
225.000      1.46341e+01
226.000      1.48490e+01
227.000      1.50494e+01
228.000      1.52279e+01
229.000      1.53825e+01
230.000      1.55146e+01
231.000      1.56269e+01
232.000      1.57206e+01
233.000      1.57937e+01
234.000      1.58410e+01
235.000      1.58542e+01
236.000      1.58243e+01
237.000      1.57432e+01
238.000      1.56070e+01
239.000      1.54175e+01
240.000      1.51824e+01
241.000      1.49151e+01
242.000      1.46310e+01
243.000      1.43449e+01
244.000      1.40670e+01
245.000      1.37996e+01
246.000      1.35359e+01
247.000      1.32600e+01
248.000      1.29496e+01
249.000      1.25808e+01
250.000      1.21338e+01
251.000      1.15982e+01
252.000      1.09761e+01
253.000      1.02819e+01
254.000      9.53901e+00
255.000      8.77482e+00
256.000      8.01562e+00
257.000      7.28359e+00
258.000      6.59610e+00
259.000      5.96700e+00
260.000      5.40813e+00
261.000      4.93008e+00
262.000      4.54137e+00
263.000      4.24657e+00
264.000      4.04446e+00
265.000      3.92708e+00
266.000      3.87989e+00
267.000      3.88296e+00
268.000      3.91264e+00
269.000      3.94363e+00
270.000      3.95193e+00
271.000      3.91879e+00
272.000      3.83535e+00
273.000      3.70650e+00
274.000      3.55219e+00
275.000      3.40449e+00
276.000      3.30038e+00
277.000      3.27186e+00
278.000      3.33635e+00
279.000      3.49057e+00
280.000      3.71011e+00
281.000      3.95470e+00
282.000      4.17782e+00
283.000      4.33760e+00
284.000      4.40630e+00
285.000      4.37592e+00
286.000      4.25914e+00
287.000      4.08549e+00
288.000      3.89391e+00
289.000      3.72335e+00
290.000      3.60362e+00
291.000      3.54880e+00
292.000      3.55531e+00
293.000      3.60547e+00
294.000      3.67573e+00
295.000      3.74703e+00
296.000      3.81328e+00
297.000      3.88442e+00
298.000      3.98239e+00
299.000      4.13111e+00
300.000      4.34447e+00
301.000      4.61739e+00
302.000      4.92396e+00
303.000      5.22404e+00
304.000      5.47566e+00
305.000      5.64863e+00
306.000      5.73410e+00
307.000      5.74685e+00
308.000      5.72021e+00
309.000      5.69652e+00
310.000      5.71714e+00
311.000      5.81528e+00
312.000      6.01320e+00
313.000      6.32280e+00
314.000      6.74762e+00
315.000      7.28424e+00
316.000      7.92205e+00
317.000      8.64218e+00
318.000      9.41675e+00
319.000      1.02104e+01
320.000      1.09845e+01
321.000      1.17042e+01
322.000      1.23463e+01
323.000      1.29054e+01
324.000      1.33965e+01
325.000      1.38529e+01
326.000      1.43190e+01
327.000      1.48405e+01
328.000      1.54543e+01
329.000      1.61807e+01
330.000      1.70194e+01
331.000      1.79510e+01
332.000      1.89416e+01
333.000      1.99491e+01
334.000      2.09305e+01
335.000      2.18467e+01
336.000      2.26659e+01
337.000      2.33637e+01
338.000      2.39230e+01
339.000      2.43328e+01
340.000      2.45876e+01
341.000      2.46863e+01
342.000      2.46319e+01
343.000      2.44306e+01
344.000      2.40912e+01
345.000      2.36239e+01
346.000      2.30397e+01
347.000      2.23500e+01
348.000      2.15665e+01
349.000      2.07017e+01
350.000      1.97691e+01
351.000      1.87844e+01
352.000      1.77658e+01
353.000      1.67348e+01
354.000      1.57150e+01
355.000      1.47308e+01
356.000      1.38039e+01
357.000      1.29501e+01
358.000      1.21770e+01
359.000      1.14831e+01
360.000      1.08595e+01
361.000      1.02931e+01
362.000      9.77102e+00
363.000      9.28312e+00
364.000      8.82349e+00
365.000      8.38934e+00
366.000      7.97868e+00
367.000      7.58775e+00
368.000      7.20963e+00
369.000      6.83450e+00
370.000      6.45187e+00
371.000      6.05414e+00
372.000      5.64067e+00
373.000      5.22111e+00
374.000      4.81690e+00
375.000      4.45993e+00
376.000      4.18831e+00
377.000      4.03998e+00
378.000      4.04540e+00
379.000      4.22127e+00
380.000      4.56663e+00
381.000      5.06236e+00
382.000      5.67393e+00
383.000      6.35661e+00
384.000      7.06168e+00
385.000      7.74189e+00
386.000      8.35505e+00
387.000      8.86524e+00
388.000      9.24231e+00
389.000      9.46109e+00
390.000      9.50163e+00
391.000      9.35118e+00
392.000      9.00741e+00
393.000      8.48155e+00
394.000      7.79982e+00
395.000      7.00214e+00
396.000      6.13815e+00
397.000      5.26138e+00
398.000      4.42285e+00
399.000      3.66510e+00
400.000      3.01770e+00
401.000      2.49447e+00
402.000      2.09305e+00
403.000      1.79685e+00
404.000      1.57951e+00
405.000      1.41085e+00
406.000      1.26336e+00
407.000      1.11726e+00
408.000      9.63051e-01
409.000      8.01044e-01
410.000      6.38465e-01
411.000      4.85369e-01
412.000      3.50882e-01
413.000      2.40757e-01
414.000      1.56605e-01
415.000      9.64967e-02
416.000      5.62981e-02
417.000      3.10899e-02
418.000      1.62483e-02
419.000      8.03534e-03
420.000      3.75992e-03
421.000      1.66459e-03
422.000      6.97236e-04
423.000      2.76302e-04
424.000      1.03590e-04
425.000      3.67429e-05
426.000      1.23297e-05
427.000      3.91427e-06
428.000      1.17562e-06
429.000      3.34046e-07
430.000      8.97968e-08
431.000      2.28367e-08
432.000      5.49446e-09
433.000      1.25065e-09
434.000      2.69315e-10
435.000      5.48662e-11
436.000      1.05747e-11
437.000      1.92818e-12
438.000      3.32617e-13
439.000      5.42824e-14
440.000      8.38092e-15
441.000      1.22417e-15
442.000      1.69165e-16
443.000      2.21154e-17
444.000      2.73525e-18
445.000      3.20050e-19
446.000      3.54288e-20
447.000      3.71033e-21
448.000      3.67608e-22
449.000      3.44569e-23
450.000      3.05552e-24
451.000      2.56337e-25
452.000      2.03449e-26
453.000      1.52762e-27
454.000      1.08516e-28
455.000      7.29275e-30
456.000      4.63666e-31
457.000      2.78893e-32
458.000      1.58704e-33
459.000      8.54385e-35
460.000      4.35149e-36
461.000      2.09672e-37
462.000      9.55785e-39
463.000      4.12190e-40
464.000      1.68172e-41
465.000      6.49120e-43
466.000      2.37036e-44
467.000      8.18885e-46
468.000      2.67638e-47
469.000      8.27544e-49
470.000      2.42076e-50
471.000      6.69931e-52
472.000      1.75398e-53
473.000      4.34449e-55
474.000      1.01805e-56
475.000      2.25693e-58
476.000      4.73352e-60
477.000      9.39222e-62
478.000      1.76307e-63
479.000      3.13104e-65
480.000      5.26048e-67
481.000      8.36140e-69
482.000      1.25733e-70
483.000      1.78871e-72
484.000      2.40739e-74
485.000      3.06529e-76
486.000      3.69244e-78
487.000      4.20798e-80
488.000      4.53681e-82
489.000      4.62750e-84
490.000      4.46538e-86
491.000      4.07651e-88
492.000      3.52076e-90
493.000      2.87675e-92
494.000      2.22374e-94
495.000      1.62624e-96
496.000      1.12513e-98
497.000     7.36443e-101
498.000     4.56029e-103
499.000     2.67155e-105
500.000     1.48065e-107
