# Gaussian folded, width=10 cm^-1
# [cm^-1] arbitrary
0.000      3.00000e+00
1.000      2.91796e+00
2.000      2.68508e+00
3.000      2.33749e+00
4.000      1.92514e+00
5.000      1.50000e+00
6.000      1.10570e+00
7.000      7.71085e-01
8.000      5.08727e-01
9.000      3.17531e-01
10.000      1.87505e-01
11.000      1.04764e-01
12.000      5.54168e-02
13.000      2.78527e-02
14.000      1.35842e-02
15.000      7.17734e-03
16.000      5.82948e-03
17.000      9.04854e-03
18.000      1.87180e-02
19.000      3.96727e-02
20.000      8.07324e-02
21.000      1.55902e-01
22.000      2.85136e-01
23.000      4.93758e-01
24.000      8.09508e-01
25.000      1.25653e+00
26.000      1.84663e+00
27.000      2.56948e+00
28.000      3.38512e+00
29.000      4.22252e+00
30.000      4.98707e+00
31.000      5.57698e+00
32.000      5.90527e+00
33.000      5.92074e+00
34.000      5.62118e+00
35.000      5.05407e+00
36.000      4.30479e+00
37.000      3.47647e+00
38.000      2.66871e+00
39.000      1.96143e+00
40.000      1.40790e+00
41.000      1.03657e+00
42.000      8.58700e-01
43.000      8.76802e-01
44.000      1.08990e+00
45.000      1.49309e+00
46.000      2.07184e+00
47.000      2.79359e+00
48.000      3.60116e+00
49.000      4.41228e+00
50.000      5.12803e+00
51.000      5.64949e+00
52.000      5.89852e+00
53.000      5.83614e+00
54.000      5.47227e+00
55.000      4.86320e+00
56.000      4.09782e+00
57.000      3.27736e+00
58.000      2.49550e+00
59.000      1.82446e+00
60.000      1.30991e+00
61.000      9.73880e-01
62.000      8.22333e-01
63.000      8.52926e-01
64.000      1.05971e+00
65.000      1.43320e+00
66.000      1.95664e+00
67.000      2.60120e+00
68.000      3.32334e+00
69.000      4.06730e+00
70.000      4.77363e+00
71.000      5.39218e+00
72.000      5.89574e+00
73.000      6.28965e+00
74.000      6.61343e+00
75.000      6.93323e+00
76.000      7.32686e+00
77.000      7.86582e+00
78.000      8.59951e+00
79.000      9.54574e+00
80.000      1.06890e+01
81.000      1.19849e+01
82.000      1.33678e+01
83.000      1.47581e+01
84.000      1.60670e+01
85.000      1.72007e+01
86.000      1.80660e+01
87.000      1.85797e+01
88.000      1.86810e+01
89.000      1.83459e+01
90.000      1.75966e+01
91.000      1.65025e+01
92.000      1.51712e+01
93.000      1.37311e+01
94.000      1.23117e+01
95.000      1.10276e+01
96.000      9.97013e+00
97.000      9.20555e+00
98.000      8.77872e+00
99.000      8.71604e+00
100.000      9.02565e+00
101.000      9.69452e+00
102.000      1.06848e+01
103.000      1.19328e+01
104.000      1.33524e+01
105.000      1.48428e+01
106.000      1.62987e+01
107.000      1.76202e+01
108.000      1.87217e+01
109.000      1.95391e+01
110.000      2.00363e+01
111.000      2.02106e+01
112.000      2.00954e+01
113.000      1.97569e+01
114.000      1.92836e+01
115.000      1.87696e+01
116.000      1.82936e+01
117.000      1.79016e+01
118.000      1.75975e+01
119.000      1.73469e+01
120.000      1.70918e+01
121.000      1.67739e+01
122.000      1.63559e+01
123.000      1.58358e+01
124.000      1.52472e+01
125.000      1.46476e+01
126.000      1.40983e+01
127.000      1.36444e+01
128.000      1.33006e+01
129.000      1.30472e+01
130.000      1.28368e+01
131.000      1.26072e+01
132.000      1.22965e+01
133.000      1.18557e+01
134.000      1.12574e+01
135.000      1.04983e+01
136.000      9.59853e+00
137.000      8.59789e+00
138.000      7.55011e+00
139.000      6.51570e+00
140.000      5.55373e+00
141.000      4.71325e+00
142.000      4.02547e+00
143.000      3.49866e+00
144.000      3.11731e+00
145.000      2.84635e+00
146.000      2.63978e+00
147.000      2.45160e+00
148.000      2.24614e+00
149.000      2.00470e+00
150.000      1.72719e+00
151.000      1.42880e+00
152.000      1.13357e+00
153.000      8.67470e-01
154.000      6.53313e-01
155.000      5.08533e-01
156.000      4.45738e-01
157.000      4.74781e-01
158.000      6.04822e-01
159.000      8.45197e-01
160.000      1.20459e+00
161.000      1.68870e+00
162.000      2.29697e+00
163.000      3.01926e+00
164.000      3.83319e+00
165.000      4.70314e+00
166.000      5.58215e+00
167.000      6.41800e+00
168.000      7.16398e+00
169.000      7.79294e+00
170.000      8.31085e+00
171.000      8.76391e+00
172.000      9.23406e+00
173.000      9.82051e+00
174.000      1.06109e+01
175.000      1.16506e+01
176.000      1.29211e+01
177.000      1.43359e+01
178.000      1.57568e+01
179.000      1.70268e+01
180.000      1.80080e+01
181.000      1.86152e+01
182.000      1.88342e+01
183.000      1.87224e+01
184.000      1.83912e+01
185.000      1.79745e+01
186.000      1.75937e+01
187.000      1.73258e+01
188.000      1.71861e+01
189.000      1.71313e+01
190.000      1.70847e+01
191.000      1.69765e+01
192.000      1.67865e+01
193.000      1.65737e+01
194.000      1.64784e+01
195.000      1.66943e+01
196.000      1.74147e+01
197.000      1.87712e+01
198.000      2.07817e+01
199.000      2.33278e+01
200.000      2.61679e+01
201.000      2.89841e+01
202.000      3.14506e+01
203.000      3.33024e+01
204.000      3.43874e+01
205.000      3.46868e+01
206.000      3.43010e+01
207.000      3.34071e+01
208.000      3.22022e+01
209.000      3.08496e+01
210.000      2.94448e+01
211.000      2.80095e+01
212.000      2.65139e+01
213.000      2.49142e+01
214.000      2.31908e+01
215.000      2.13691e+01
216.000      1.95163e+01
217.000      1.77166e+01
218.000      1.60400e+01
219.000      1.45177e+01
220.000      1.31390e+01
221.000      1.18680e+01
222.000      1.06735e+01
223.000      9.55839e+00
224.000      8.57495e+00
225.000      7.82246e+00
226.000      7.42607e+00
227.000      7.50542e+00
228.000      8.14184e+00
229.000      9.35293e+00
230.000      1.10804e+01
231.000      1.31940e+01
232.000      1.55108e+01
233.000      1.78266e+01
234.000      1.99531e+01
235.000      2.17533e+01
236.000      2.31660e+01
237.000      2.42144e+01
238.000      2.49944e+01
239.000      2.56458e+01
240.000      2.63135e+01
241.000      2.71099e+01
242.000      2.80879e+01
243.000      2.92330e+01
244.000      3.04730e+01
245.000      3.17001e+01
246.000      3.27960e+01
247.000      3.36492e+01
248.000      3.41619e+01
249.000      3.42497e+01
250.000      3.38396e+01
251.000      3.28748e+01
252.000      3.13279e+01
253.000      2.92189e+01
254.000      2.66284e+01
255.000      2.36979e+01
256.000      2.06139e+01
257.000      1.75777e+01
258.000      1.47712e+01
259.000      1.23281e+01
260.000      1.03186e+01
261.000      8.74913e+00
262.000      7.57554e+00
263.000      6.72328e+00
264.000      6.10897e+00
265.000      5.65900e+00
266.000      5.32304e+00
267.000      5.08147e+00
268.000      4.94693e+00
269.000      4.95992e+00
270.000      5.17888e+00
271.000      5.66577e+00
272.000      6.46908e+00
273.000      7.60693e+00
274.000      9.05377e+00
275.000      1.07335e+01
276.000      1.25215e+01
277.000      1.42555e+01
278.000      1.57560e+01
279.000      1.68509e+01
280.000      1.74024e+01
281.000      1.73302e+01
282.000      1.66251e+01
283.000      1.53516e+01
284.000      1.36368e+01
285.000      1.16492e+01
286.000      9.57192e+00
287.000      7.57558e+00
288.000      5.79746e+00
289.000      4.32909e+00
290.000      3.21311e+00
291.000      2.44775e+00
292.000      1.99589e+00
293.000      1.79605e+00
294.000      1.77346e+00
295.000      1.85048e+00
296.000      1.95637e+00
297.000      2.03590e+00
298.000      2.05601e+00
299.000      2.00916e+00
300.000      1.91236e+00
301.000      1.80156e+00
302.000      1.72234e+00
303.000      1.71902e+00
304.000      1.82428e+00
305.000      2.05169e+00
306.000      2.39230e+00
307.000      2.81583e+00
308.000      3.27611e+00
309.000      3.71942e+00
310.000      4.09408e+00
311.000      4.35928e+00
312.000      4.49147e+00
313.000      4.48722e+00
314.000      4.36186e+00
315.000      4.14480e+00
316.000      3.87228e+00
317.000      3.57952e+00
318.000      3.29393e+00
319.000      3.03093e+00
320.000      2.79316e+00
321.000      2.57298e+00
322.000      2.35733e+00
323.000      2.13333e+00
324.000      1.89293e+00
325.000      1.63554e+00
326.000      1.36802e+00
327.000      1.10248e+00
328.000      8.52865e-01
329.000      6.31490e-01
330.000      4.46530e-01
331.000      3.00997e-01
332.000      1.93149e-01
333.000      1.17855e-01
334.000      6.83175e-02
335.000      3.75942e-02
336.000      1.96268e-02
337.000      9.71619e-03
338.000      4.55915e-03
339.000      2.02704e-03
340.000      8.53713e-04
341.000      3.40511e-04
342.000      1.28599e-04
343.000      4.59794e-05
344.000      1.55616e-05
345.000      4.98499e-06
346.000      1.51132e-06
347.000      4.33611e-07
348.000      1.17726e-07
349.000      3.02447e-08
350.000      7.35219e-09
351.000      1.69107e-09
352.000      3.68020e-10
353.000      7.57773e-11
354.000      1.47624e-11
355.000      2.72092e-12
356.000      4.74478e-13
357.000      7.82798e-14
358.000      1.22184e-14
359.000      1.80431e-15
360.000      2.52076e-16
361.000      3.33180e-17
362.000      4.16629e-18
363.000      4.92882e-19
364.000      5.51642e-20
365.000      5.84108e-21
366.000      5.85126e-22
367.000      5.54531e-23
368.000      4.97188e-24
369.000      4.21731e-25
370.000      3.38430e-26
371.000      2.56933e-27
372.000      1.84540e-28
373.000      1.25394e-29
374.000      8.06092e-31
375.000      4.90241e-32
376.000      2.82067e-33
377.000      1.53537e-34
378.000      7.90661e-36
379.000      3.85200e-37
380.000      1.77541e-38
381.000      7.74161e-40
382.000      3.19360e-41
383.000      1.24637e-42
384.000      4.60184e-44
385.000      1.60744e-45
386.000      5.31194e-47
387.000      1.66070e-48
388.000      4.91186e-50
389.000      1.37442e-51
390.000      3.63838e-53
391.000      9.11206e-55
392.000      2.15895e-56
393.000      4.83933e-58
394.000      1.02623e-59
395.000      2.05885e-61
396.000      3.90769e-63
397.000      7.01671e-65
398.000      1.19197e-66
399.000      1.91564e-68
400.000      2.91259e-70
401.000      4.18951e-72
402.000      5.70118e-74
403.000      7.33980e-76
404.000      8.93965e-78
405.000      1.03009e-79
406.000      1.12292e-81
407.000      1.15807e-83
408.000      1.12991e-85
409.000      1.04296e-87
410.000      9.10774e-90
411.000      7.52438e-92
412.000      5.88096e-94
413.000      4.34854e-96
414.000      3.04198e-98
415.000     2.01320e-100
416.000     1.26048e-102
417.000     7.46620e-105
418.000     4.18392e-107
419.000     2.21811e-109
420.000     1.11251e-111
421.000     5.27883e-114
422.000     2.36969e-116
423.000     1.00638e-118
424.000     4.04344e-121
425.000     1.53694e-123
426.000     5.52690e-126
427.000     1.88028e-128
428.000     6.05177e-131
429.000     1.84272e-133
430.000     5.30828e-136
431.000     1.44666e-138
432.000     3.72988e-141
433.000     9.09792e-144
434.000     2.09946e-146
435.000     4.58341e-149
436.000     9.46649e-152
437.000     1.84972e-154
438.000     3.41934e-157
439.000     5.97991e-160
440.000     9.89384e-163
441.000     1.54865e-165
442.000     2.29329e-168
443.000     3.21278e-171
444.000     4.25816e-174
445.000     5.33925e-177
446.000     6.33369e-180
447.000     7.10804e-183
448.000     7.54677e-186
449.000     7.58036e-189
450.000     7.20338e-192
451.000     6.47590e-195
452.000     5.50785e-198
453.000     4.43181e-201
454.000     3.37363e-204
455.000     2.42959e-207
456.000     1.65533e-210
457.000     1.06697e-213
458.000     6.50640e-217
459.000     3.75358e-220
460.000     2.04865e-223
461.000     1.05781e-226
462.000     5.16732e-230
463.000     2.38803e-233
464.000     1.04408e-236
465.000     4.31861e-240
466.000     1.68994e-243
467.000     6.25629e-247
468.000     2.19119e-250
469.000     7.26041e-254
470.000     2.27593e-257
471.000     6.74956e-261
472.000     1.89369e-264
473.000     5.02643e-268
474.000     1.26220e-271
475.000     2.99858e-275
476.000     6.73937e-279
477.000     1.43298e-282
478.000     2.88257e-286
479.000     5.48576e-290
480.000     9.87668e-294
481.000     1.68230e-297
482.000     2.71089e-301
483.000     4.13275e-305
484.000     5.96052e-309
485.000     8.13292e-313
486.000     1.04985e-316
487.000     1.28210e-320
488.000      0.00000e+00
489.000      0.00000e+00
490.000      0.00000e+00
491.000      0.00000e+00
492.000      0.00000e+00
493.000      0.00000e+00
494.000      0.00000e+00
495.000      0.00000e+00
496.000      0.00000e+00
497.000      0.00000e+00
498.000      0.00000e+00
499.000      0.00000e+00
500.000      0.00000e+00
