# Gaussian folded, width=10 cm^-1
# [cm^-1] arbitrary
0.000      3.00000e+00
1.000      2.91796e+00
2.000      2.68508e+00
3.000      2.33749e+00
4.000      1.92514e+00
5.000      1.50000e+00
6.000      1.10570e+00
7.000      7.71085e-01
8.000      5.08727e-01
9.000      3.17531e-01
10.000      1.87506e-01
11.000      1.04765e-01
12.000      5.54193e-02
13.000      2.78593e-02
14.000      1.36007e-02
15.000      7.21617e-03
16.000      5.91525e-03
17.000      9.22587e-03
18.000      1.90604e-02
19.000      4.02887e-02
20.000      8.17603e-02
21.000      1.57484e-01
22.000      2.87363e-01
23.000      4.96583e-01
24.000      8.12648e-01
25.000      1.25940e+00
26.000      1.84835e+00
27.000      2.56901e+00
28.000      3.38155e+00
29.000      4.21540e+00
30.000      4.97667e+00
31.000      5.56443e+00
32.000      5.89237e+00
33.000      5.90957e+00
34.000      5.61355e+00
35.000      5.05115e+00
36.000      4.30685e+00
37.000      3.48312e+00
38.000      2.67919e+00
39.000      1.97516e+00
40.000      1.42470e+00
41.000      1.05675e+00
42.000      8.82571e-01
43.000      9.03973e-01
44.000      1.11837e+00
45.000      1.51865e+00
46.000      2.08806e+00
47.000      2.79291e+00
48.000      3.57687e+00
49.000      4.36106e+00
50.000      5.05202e+00
51.000      5.55697e+00
52.000      5.80264e+00
53.000      5.75191e+00
54.000      5.41263e+00
55.000      4.83565e+00
56.000      4.10270e+00
57.000      3.30825e+00
58.000      2.54119e+00
59.000      1.87165e+00
60.000      1.34564e+00
61.000      9.87197e-01
62.000      8.05247e-01
63.000      8.01254e-01
64.000      9.74301e-01
65.000      1.32161e+00
66.000      1.83465e+00
67.000      2.49300e+00
68.000      3.25927e+00
69.000      4.07869e+00
70.000      4.88555e+00
71.000      5.61611e+00
72.000      6.22503e+00
73.000      6.69968e+00
74.000      7.06712e+00
75.000      7.39013e+00
76.000      7.75254e+00
77.000      8.23806e+00
78.000      8.90897e+00
79.000      9.79086e+00
80.000      1.08672e+01
81.000      1.20836e+01
82.000      1.33590e+01
83.000      1.45991e+01
84.000      1.57094e+01
85.000      1.66056e+01
86.000      1.72220e+01
87.000      1.75182e+01
88.000      1.74836e+01
89.000      1.71381e+01
90.000      1.65282e+01
91.000      1.57181e+01
92.000      1.47791e+01
93.000      1.37793e+01
94.000      1.27790e+01
95.000      1.18311e+01
96.000      1.09857e+01
97.000      1.02951e+01
98.000      9.81444e+00
99.000      9.59719e+00
100.000      9.68627e+00
101.000      1.01041e+01
102.000      1.08453e+01
103.000      1.18743e+01
104.000      1.31278e+01
105.000      1.45208e+01
106.000      1.59534e+01
107.000      1.73198e+01
108.000      1.85172e+01
109.000      1.94563e+01
110.000      2.00739e+01
111.000      2.03423e+01
112.000      2.02768e+01
113.000      1.99342e+01
114.000      1.94037e+01
115.000      1.87908e+01
116.000      1.81967e+01
117.000      1.76983e+01
118.000      1.73337e+01
119.000      1.70968e+01
120.000      1.69430e+01
121.000      1.68044e+01
122.000      1.66104e+01
123.000      1.63089e+01
124.000      1.58792e+01
125.000      1.53355e+01
126.000      1.47190e+01
127.000      1.40817e+01
128.000      1.34691e+01
129.000      1.29068e+01
130.000      1.23953e+01
131.000      1.19139e+01
132.000      1.14303e+01
133.000      1.09121e+01
134.000      1.03359e+01
135.000      9.69093e+00
136.000      8.97955e+00
137.000      8.21429e+00
138.000      7.41539e+00
139.000      6.60879e+00
140.000      5.82441e+00
141.000      5.09329e+00
142.000      4.44291e+00
143.000      3.89146e+00
144.000      3.44289e+00
145.000      3.08532e+00
146.000      2.79386e+00
147.000      2.53747e+00
148.000      2.28743e+00
149.000      2.02466e+00
150.000      1.74359e+00
151.000      1.45170e+00
152.000      1.16576e+00
153.000      9.06645e-01
154.000      6.94821e-01
155.000      5.47749e-01
156.000      4.79506e-01
157.000      5.01833e-01
158.000      6.25454e-01
159.000      8.60566e-01
160.000      1.21598e+00
161.000      1.69697e+00
162.000      2.30228e+00
163.000      3.02107e+00
164.000      3.83057e+00
165.000      4.69518e+00
166.000      5.56854e+00
167.000      6.39943e+00
168.000      7.14233e+00
169.000      7.77114e+00
170.000      8.29249e+00
171.000      8.75291e+00
172.000      9.23452e+00
173.000      9.83690e+00
174.000      1.06483e+01
175.000      1.17142e+01
176.000      1.30153e+01
177.000      1.44622e+01
178.000      1.59119e+01
179.000      1.72009e+01
180.000      1.81855e+01
181.000      1.87766e+01
182.000      1.89598e+01
183.000      1.87954e+01
184.000      1.84002e+01
185.000      1.79150e+01
186.000      1.74683e+01
187.000      1.71443e+01
188.000      1.69652e+01
189.000      1.68937e+01
190.000      1.68563e+01
191.000      1.67823e+01
192.000      1.66459e+01
193.000      1.64954e+01
194.000      1.64588e+01
195.000      1.67184e+01
196.000      1.74606e+01
197.000      1.88164e+01
198.000      2.08099e+01
199.000      2.33328e+01
200.000      2.61552e+01
201.000      2.89685e+01
202.000      3.14505e+01
203.000      3.33339e+01
204.000      3.44586e+01
205.000      3.47957e+01
206.000      3.44361e+01
207.000      3.35513e+01
208.000      3.23370e+01
209.000      3.09595e+01
210.000      2.95196e+01
211.000      2.80459e+01
212.000      2.65146e+01
213.000      2.48869e+01
214.000      2.31460e+01
215.000      2.13170e+01
216.000      1.94640e+01
217.000      1.76663e+01
218.000      1.59887e+01
219.000      1.44597e+01
220.000      1.30686e+01
221.000      1.17830e+01
222.000      1.05760e+01
223.000      9.45379e+00
224.000      8.46944e+00
225.000      7.71953e+00
226.000      7.32485e+00
227.000      7.40130e+00
228.000      8.02980e+00
229.000      9.23248e+00
230.000      1.09605e+01
231.000      1.30958e+01
232.000      1.54668e+01
233.000      1.78752e+01
234.000      2.01295e+01
235.000      2.20784e+01
236.000      2.36370e+01
237.000      2.47994e+01
238.000      2.56329e+01
239.000      2.62555e+01
240.000      2.68018e+01
241.000      2.73880e+01
242.000      2.80851e+01
243.000      2.89095e+01
244.000      2.98307e+01
245.000      3.07893e+01
246.000      3.17153e+01
247.000      3.25382e+01
248.000      3.31843e+01
249.000      3.35680e+01
250.000      3.35856e+01
251.000      3.31228e+01
252.000      3.20771e+01
253.000      3.03893e+01
254.000      2.80736e+01
255.000      2.52300e+01
256.000      2.20351e+01
257.000      1.87120e+01
258.000      1.54881e+01
259.000      1.25564e+01
260.000      1.00491e+01
261.000      8.02872e+00
262.000      6.49579e+00
263.000      5.40589e+00
264.000      4.69033e+00
265.000      4.27485e+00
266.000      4.09394e+00
267.000      4.10043e+00
268.000      4.27041e+00
269.000      4.60378e+00
270.000      5.12012e+00
271.000      5.84985e+00
272.000      6.82149e+00
273.000      8.04678e+00
274.000      9.50649e+00
275.000      1.11405e+01
276.000      1.28450e+01
277.000      1.44797e+01
278.000      1.58841e+01
279.000      1.69008e+01
280.000      1.74017e+01
281.000      1.73103e+01
282.000      1.66164e+01
283.000      1.53784e+01
284.000      1.37133e+01
285.000      1.17775e+01
286.000      9.74226e+00
287.000      7.76898e+00
288.000      5.98996e+00
289.000      4.49650e+00
290.000      3.33565e+00
291.000      2.51405e+00
292.000      2.00672e+00
293.000      1.76773e+00
294.000      1.74052e+00
295.000      1.86623e+00
296.000      2.08938e+00
297.000      2.36092e+00
298.000      2.63921e+00
299.000      2.88978e+00
300.000      3.08504e+00
301.000      3.20457e+00
302.000      3.23655e+00
303.000      3.17988e+00
304.000      3.04586e+00
305.000      2.85833e+00
306.000      2.65096e+00
307.000      2.46195e+00
308.000      2.32694e+00
309.000      2.27204e+00
310.000      2.30883e+00
311.000      2.43268e+00
312.000      2.62441e+00
313.000      2.85467e+00
314.000      3.08959e+00
315.000      3.29628e+00
316.000      3.44736e+00
317.000      3.52394e+00
318.000      3.51696e+00
319.000      3.42690e+00
320.000      3.26214e+00
321.000      3.03620e+00
322.000      2.76489e+00
323.000      2.46375e+00
324.000      2.14673e+00
325.000      1.82593e+00
326.000      1.51210e+00
327.000      1.21517e+00
328.000      9.44236e-01
329.000      7.06849e-01
330.000      5.08049e-01
331.000      3.49558e-01
332.000      2.29653e-01
333.000      1.43770e-01
334.000      8.56233e-02
335.000      4.84483e-02
336.000      2.60190e-02
337.000      1.32524e-02
338.000      6.39784e-03
339.000      2.92624e-03
340.000      1.26758e-03
341.000      5.19897e-04
342.000      2.01860e-04
343.000      7.41837e-05
344.000      2.58014e-05
345.000      8.49211e-06
346.000      2.64484e-06
347.000      7.79417e-07
348.000      2.17326e-07
349.000      5.73343e-08
350.000      1.43108e-08
351.000      3.37954e-09
352.000      7.55070e-10
353.000      1.59606e-10
354.000      3.19182e-11
355.000      6.03884e-12
356.000      1.08092e-12
357.000      1.83044e-13
358.000      2.93251e-14
359.000      4.44472e-15
360.000      6.37337e-16
361.000      8.64595e-17
362.000      1.10962e-17
363.000      1.34728e-18
364.000      1.54759e-19
365.000      1.68180e-20
366.000      1.72906e-21
367.000      1.68176e-22
368.000      1.54752e-23
369.000      1.34718e-24
370.000      1.10952e-25
371.000      8.64489e-27
372.000      6.37239e-28
373.000      4.44389e-29
374.000      2.93185e-30
375.000      1.82994e-31
376.000      1.08056e-32
377.000      6.03646e-34
378.000      3.19030e-35
379.000      1.59513e-36
380.000      7.54539e-38
381.000      3.37663e-39
382.000      1.42956e-40
383.000      5.72584e-42
384.000      2.16967e-43
385.000      7.77797e-45
386.000      2.63788e-46
387.000      8.46376e-48
388.000      2.56914e-49
389.000      7.37786e-51
390.000      2.00443e-52
391.000      5.15191e-54
392.000      1.25275e-55
393.000      2.88189e-57
394.000      6.27202e-59
395.000      1.29138e-60
396.000      2.51548e-62
397.000      4.63558e-64
398.000      8.08175e-66
399.000      1.33298e-67
400.000      2.07998e-69
401.000      3.07053e-71
402.000      4.28830e-73
403.000      5.66597e-75
404.000      7.08240e-77
405.000      8.37538e-79
406.000      9.37015e-81
407.000      9.91758e-83
408.000      9.93077e-85
409.000      9.40757e-87
410.000      8.43120e-89
411.000      7.14857e-91
412.000      5.73412e-93
413.000      4.35142e-95
414.000      3.12402e-97
415.000      2.12185e-99
416.000     1.36343e-101
417.000     8.28833e-104
418.000     4.76673e-106
419.000     2.59353e-108
420.000     1.33499e-110
421.000     6.50107e-113
422.000     2.99508e-115
423.000     1.30542e-117
424.000     5.38279e-120
425.000     2.09983e-122
426.000     7.74957e-125
427.000     2.70576e-127
428.000     8.93753e-130
429.000     2.79296e-132
430.000     8.25711e-135
431.000     2.30946e-137
432.000     6.11096e-140
433.000     1.52977e-142
434.000     3.62294e-145
435.000     8.11733e-148
436.000     1.72061e-150
437.000     3.45041e-153
438.000     6.54599e-156
439.000     1.17489e-158
440.000     1.99498e-161
441.000     3.20476e-164
442.000     4.87047e-167
443.000     7.00267e-170
444.000     9.52521e-173
445.000     1.22575e-175
446.000     1.49227e-178
447.000     1.71875e-181
448.000     1.87281e-184
449.000     1.93060e-187
450.000     1.88281e-190
451.000     1.73717e-193
452.000     1.51633e-196
453.000     1.25216e-199
454.000     9.78246e-203
455.000     7.23023e-206
456.000     5.05561e-209
457.000     3.34436e-212
458.000     2.09300e-215
459.000     1.23921e-218
460.000     6.94124e-222
461.000     3.67830e-225
462.000     1.84406e-228
463.000     8.74619e-232
464.000     3.92447e-235
465.000     1.66595e-238
466.000     6.69051e-242
467.000     2.54200e-245
468.000     9.13709e-249
469.000     3.10712e-252
470.000     9.99601e-256
471.000     3.04237e-259
472.000     8.76023e-263
473.000     2.38636e-266
474.000     6.15000e-270
475.000     1.49945e-273
476.000     3.45864e-277
477.000     7.54738e-281
478.000     1.55814e-284
479.000     3.04321e-288
480.000     5.62310e-292
481.000     9.82965e-296
482.000     1.62561e-299
483.000     2.54340e-303
484.000     3.76469e-307
485.000     5.27183e-311
486.000     6.98411e-315
487.000     8.75341e-319
488.000     1.03754e-322
489.000      0.00000e+00
490.000      0.00000e+00
491.000      0.00000e+00
492.000      0.00000e+00
493.000      0.00000e+00
494.000      0.00000e+00
495.000      0.00000e+00
496.000      0.00000e+00
497.000      0.00000e+00
498.000      0.00000e+00
499.000      0.00000e+00
500.000      0.00000e+00
