# Gaussian folded, width=10 cm^-1
# [cm^-1] arbitrary
0.000      3.00000e+00
1.000      2.91796e+00
2.000      2.68508e+00
3.000      2.33749e+00
4.000      1.92514e+00
5.000      1.50000e+00
6.000      1.10570e+00
7.000      7.71085e-01
8.000      5.08727e-01
9.000      3.17530e-01
10.000      1.87500e-01
11.000      1.04746e-01
12.000      5.53609e-02
13.000      2.76859e-02
14.000      1.31142e-02
15.000      5.92455e-03
16.000      2.67228e-03
17.000      1.52723e-03
18.000      1.78494e-03
19.000      3.65781e-03
20.000      8.39668e-03
21.000      1.87770e-02
22.000      3.99605e-02
23.000      8.06589e-02
24.000      1.54349e-01
25.000      2.80016e-01
26.000      4.81618e-01
27.000      7.85396e-01
28.000      1.21439e+00
29.000      1.78045e+00
30.000      2.47523e+00
31.000      3.26310e+00
32.000      4.07927e+00
33.000      4.83590e+00
34.000      5.43650e+00
35.000      5.79573e+00
36.000      5.85925e+00
37.000      5.61714e+00
38.000      5.10648e+00
39.000      4.40206e+00
40.000      3.59854e+00
41.000      2.78989e+00
42.000      2.05240e+00
43.000      1.43532e+00
44.000      9.60200e-01
45.000      6.27131e-01
46.000      4.24491e-01
47.000      3.38809e-01
48.000      3.62135e-01
49.000      4.95478e-01
50.000      7.47823e-01
51.000      1.13101e+00
52.000      1.65152e+00
53.000      2.30098e+00
54.000      3.04832e+00
55.000      3.83654e+00
56.000      4.58650e+00
57.000      5.20853e+00
58.000      5.61942e+00
59.000      5.76059e+00
60.000      5.61175e+00
61.000      5.19575e+00
62.000      4.57317e+00
63.000      3.82835e+00
64.000      3.05184e+00
65.000      2.32431e+00
66.000      1.70626e+00
67.000      1.23509e+00
68.000      9.28353e-01
69.000      7.90436e-01
70.000      8.19138e-01
71.000      1.00957e+00
72.000      1.35415e+00
73.000      1.83931e+00
74.000      2.44062e+00
75.000      3.11923e+00
76.000      3.82187e+00
77.000      4.48600e+00
78.000      5.04984e+00
79.000      5.46538e+00
80.000      5.71084e+00
81.000      5.79888e+00
82.000      5.77749e+00
83.000      5.72223e+00
84.000      5.72119e+00
85.000      5.85631e+00
86.000      6.18624e+00
87.000      6.73557e+00
88.000      7.49362e+00
89.000      8.42203e+00
90.000      9.46777e+00
91.000      1.05756e+01
92.000      1.16951e+01
93.000      1.27807e+01
94.000      1.37855e+01
95.000      1.46553e+01
96.000      1.53274e+01
97.000      1.57361e+01
98.000      1.58260e+01
99.000      1.55668e+01
100.000      1.49653e+01
101.000      1.40692e+01
102.000      1.29623e+01
103.000      1.17514e+01
104.000      1.05492e+01
105.000      9.45763e+00
106.000      8.55495e+00
107.000      7.89018e+00
108.000      7.48423e+00
109.000      7.33701e+00
110.000      7.43750e+00
111.000      7.77251e+00
112.000      8.33106e+00
113.000      9.10242e+00
114.000      1.00690e+01
115.000      1.11978e+01
116.000      1.24345e+01
117.000      1.37047e+01
118.000      1.49220e+01
119.000      1.60023e+01
120.000      1.68780e+01
121.000      1.75083e+01
122.000      1.78826e+01
123.000      1.80159e+01
124.000      1.79402e+01
125.000      1.76939e+01
126.000      1.73141e+01
127.000      1.68319e+01
128.000      1.62727e+01
129.000      1.56574e+01
130.000      1.50059e+01
131.000      1.43393e+01
132.000      1.36805e+01
133.000      1.30549e+01
134.000      1.24876e+01
135.000      1.20018e+01
136.000      1.16139e+01
137.000      1.13309e+01
138.000      1.11472e+01
139.000      1.10449e+01
140.000      1.09957e+01
141.000      1.09652e+01
142.000      1.09181e+01
143.000      1.08224e+01
144.000      1.06538e+01
145.000      1.03970e+01
146.000      1.00466e+01
147.000      9.60763e+00
148.000      9.09484e+00
149.000      8.53122e+00
150.000      7.94589e+00
151.000      7.37093e+00
152.000      6.83793e+00
153.000      6.37478e+00
154.000      6.00318e+00
155.000      5.73680e+00
156.000      5.57987e+00
157.000      5.52594e+00
158.000      5.55733e+00
159.000      5.64591e+00
160.000      5.75618e+00
161.000      5.85049e+00
162.000      5.89567e+00
163.000      5.86912e+00
164.000      5.76241e+00
165.000      5.58119e+00
166.000      5.34172e+00
167.000      5.06542e+00
168.000      4.77377e+00
169.000      4.48532e+00
170.000      4.21543e+00
171.000      3.97786e+00
172.000      3.78684e+00
173.000      3.65766e+00
174.000      3.60541e+00
175.000      3.64178e+00
176.000      3.77141e+00
177.000      3.98929e+00
178.000      4.28038e+00
179.000      4.62211e+00
180.000      4.98937e+00
181.000      5.36076e+00
182.000      5.72401e+00
183.000      6.07879e+00
184.000      6.43528e+00
185.000      6.80885e+00
186.000      7.21239e+00
187.000      7.64943e+00
188.000      8.11102e+00
189.000      8.57782e+00
190.000      9.02700e+00
191.000      9.44074e+00
192.000      9.81277e+00
193.000      1.01499e+01
194.000      1.04677e+01
195.000      1.07828e+01
196.000      1.11045e+01
197.000      1.14307e+01
198.000      1.17489e+01
199.000      1.20423e+01
200.000      1.22978e+01
201.000      1.25119e+01
202.000      1.26921e+01
203.000      1.28543e+01
204.000      1.30157e+01
205.000      1.31880e+01
206.000      1.33728e+01
207.000      1.35602e+01
208.000      1.37312e+01
209.000      1.38610e+01
210.000      1.39243e+01
211.000      1.38992e+01
212.000      1.37720e+01
213.000      1.35409e+01
214.000      1.32197e+01
215.000      1.28387e+01
216.000      1.24435e+01
217.000      1.20893e+01
218.000      1.18322e+01
219.000      1.17197e+01
220.000      1.17828e+01
221.000      1.20313e+01
222.000      1.24546e+01
223.000      1.30260e+01
224.000      1.37091e+01
225.000      1.44642e+01
226.000      1.52518e+01
227.000      1.60343e+01
228.000      1.67753e+01
229.000      1.74385e+01
230.000      1.79875e+01
231.000      1.83885e+01
232.000      1.86138e+01
233.000      1.86461e+01
234.000      1.84824e+01
235.000      1.81351e+01
236.000      1.76303e+01
237.000      1.70050e+01
238.000      1.63024e+01
239.000      1.55693e+01
240.000      1.48530e+01
241.000      1.41995e+01
242.000      1.36508e+01
243.000      1.32411e+01
244.000      1.29913e+01
245.000      1.29042e+01
246.000      1.29619e+01
247.000      1.31259e+01
248.000      1.33423e+01
249.000      1.35486e+01
250.000      1.36828e+01
251.000      1.36915e+01
252.000      1.35365e+01
253.000      1.31987e+01
254.000      1.26791e+01
255.000      1.19981e+01
256.000      1.11916e+01
257.000      1.03067e+01
258.000      9.39630e+00
259.000      8.51364e+00
260.000      7.70744e+00
261.000      7.01756e+00
262.000      6.47136e+00
263.000      6.08068e+00
264.000      5.84006e+00
265.000      5.72677e+00
266.000      5.70330e+00
267.000      5.72240e+00
268.000      5.73407e+00
269.000      5.69321e+00
270.000      5.56641e+00
271.000      5.33645e+00
272.000      5.00387e+00
273.000      4.58533e+00
274.000      4.10959e+00
275.000      3.61200e+00
276.000      3.12852e+00
277.000      2.69028e+00
278.000      2.31935e+00
279.000      2.02640e+00
280.000      1.81052e+00
281.000      1.66146e+00
282.000      1.56363e+00
283.000      1.50067e+00
284.000      1.45933e+00
285.000      1.43127e+00
286.000      1.41252e+00
287.000      1.40153e+00
288.000      1.39708e+00
289.000      1.39754e+00
290.000      1.40184e+00
291.000      1.41147e+00
292.000      1.43192e+00
293.000      1.47204e+00
294.000      1.54117e+00
295.000      1.64471e+00
296.000      1.78048e+00
297.000      1.93774e+00
298.000      2.10010e+00
299.000      2.25166e+00
300.000      2.38412e+00
301.000      2.50195e+00
302.000      2.62327e+00
303.000      2.77546e+00
304.000      2.98701e+00
305.000      3.27832e+00
306.000      3.65494e+00
307.000      4.10560e+00
308.000      4.60589e+00
309.000      5.12590e+00
310.000      5.63924e+00
311.000      6.13027e+00
312.000      6.59697e+00
313.000      7.04908e+00
314.000      7.50209e+00
315.000      7.96971e+00
316.000      8.45748e+00
317.000      8.95990e+00
318.000      9.46207e+00
319.000      9.94536e+00
320.000      1.03949e+01
321.000      1.08065e+01
322.000      1.11901e+01
323.000      1.15689e+01
324.000      1.19754e+01
325.000      1.24439e+01
326.000      1.30035e+01
327.000      1.36731e+01
328.000      1.44580e+01
329.000      1.53507e+01
330.000      1.63331e+01
331.000      1.73795e+01
332.000      1.84602e+01
333.000      1.95443e+01
334.000      2.06009e+01
335.000      2.16006e+01
336.000      2.25162e+01
337.000      2.33227e+01
338.000      2.39996e+01
339.000      2.45315e+01
340.000      2.49099e+01
341.000      2.51341e+01
342.000      2.52098e+01
343.000      2.51472e+01
344.000      2.49572e+01
345.000      2.46478e+01
346.000      2.42220e+01
347.000      2.36786e+01
348.000      2.30144e+01
349.000      2.22289e+01
350.000      2.13272e+01
351.000      2.03225e+01
352.000      1.92351e+01
353.000      1.80903e+01
354.000      1.69157e+01
355.000      1.57384e+01
356.000      1.45851e+01
357.000      1.34808e+01
358.000      1.24495e+01
359.000      1.15119e+01
360.000      1.06833e+01
361.000      9.97053e+00
362.000      9.36943e+00
363.000      8.86470e+00
364.000      8.43199e+00
365.000      8.04213e+00
366.000      7.66653e+00
367.000      7.28206e+00
368.000      6.87453e+00
369.000      6.43988e+00
370.000      5.98336e+00
371.000      5.51737e+00
372.000      5.05868e+00
373.000      4.62595e+00
374.000      4.23791e+00
375.000      3.91238e+00
376.000      3.66631e+00
377.000      3.51661e+00
378.000      3.48135e+00
379.000      3.58043e+00
380.000      3.83467e+00
381.000      4.26213e+00
382.000      4.87159e+00
383.000      5.65431e+00
384.000      6.57657e+00
385.000      7.57640e+00
386.000      8.56698e+00
387.000      9.44761e+00
388.000      1.01203e+01
389.000      1.05081e+01
390.000      1.05693e+01
391.000      1.03048e+01
392.000      9.75603e+00
393.000      8.99397e+00
394.000      8.10414e+00
395.000      7.17045e+00
396.000      6.26247e+00
397.000      5.42826e+00
398.000      4.69336e+00
399.000      4.06450e+00
400.000      3.53583e+00
401.000      3.09507e+00
402.000      2.72795e+00
403.000      2.42019e+00
404.000      2.15788e+00
405.000      1.92728e+00
406.000      1.71528e+00
407.000      1.51089e+00
408.000      1.30705e+00
409.000      1.10202e+00
410.000      8.99370e-01
411.000      7.06368e-01
412.000      5.31482e-01
413.000      3.81773e-01
414.000      2.61134e-01
415.000      1.69767e-01
416.000      1.04760e-01
417.000      6.13008e-02
418.000      3.39920e-02
419.000      1.78532e-02
420.000      8.87840e-03
421.000      4.17954e-03
422.000      1.86219e-03
423.000      7.85177e-04
424.000      3.13272e-04
425.000      1.18266e-04
426.000      4.22437e-05
427.000      1.42763e-05
428.000      4.56470e-06
429.000      1.38084e-06
430.000      3.95188e-07
431.000      1.07002e-07
432.000      2.74096e-08
433.000      6.64257e-09
434.000      1.52297e-09
435.000      3.30342e-10
436.000      6.77888e-11
437.000      1.31604e-11
438.000      2.41714e-12
439.000      4.20001e-13
440.000      6.90426e-14
441.000      1.07375e-14
442.000      1.57981e-15
443.000      2.19900e-16
444.000      2.89577e-17
445.000      3.60761e-18
446.000      4.25200e-19
447.000      4.74116e-20
448.000      5.00143e-21
449.000      4.99138e-22
450.000      4.71264e-23
451.000      4.20946e-24
452.000      3.55718e-25
453.000      2.84382e-26
454.000      2.15089e-27
455.000      1.53904e-28
456.000      1.04184e-29
457.000      6.67217e-31
458.000      4.04252e-32
459.000      2.31715e-33
460.000      1.25654e-34
461.000      6.44633e-36
462.000      3.12873e-37
463.000      1.43662e-38
464.000      6.24068e-40
465.000      2.56472e-41
466.000      9.97162e-43
467.000      3.66783e-44
468.000      1.27635e-45
469.000      4.20193e-47
470.000      1.30871e-48
471.000      3.85619e-50
472.000      1.07496e-51
473.000      2.83491e-53
474.000      7.07304e-55
475.000      1.66951e-56
476.000      3.72814e-58
477.000      7.87610e-60
478.000      1.57416e-61
479.000      2.97648e-63
480.000      5.32446e-65
481.000      9.01084e-67
482.000      1.44269e-68
483.000      2.18523e-70
484.000      3.13141e-72
485.000      4.24522e-74
486.000      5.44476e-76
487.000      6.60654e-78
488.000      7.58380e-80
489.000      8.23602e-82
490.000      8.46186e-84
491.000      8.22492e-86
492.000      7.56336e-88
493.000      6.57985e-90
494.000      5.41545e-92
495.000      4.21668e-94
496.000      3.10617e-96
497.000      2.16469e-98
498.000     1.42720e-100
499.000     8.90209e-103
500.000     5.25311e-105
