# Gaussian folded, width=10 cm^-1
# [cm^-1] arbitrary
0.000      3.00000e+00
1.000      2.91796e+00
2.000      2.68508e+00
3.000      2.33749e+00
4.000      1.92514e+00
5.000      1.50000e+00
6.000      1.10570e+00
7.000      7.71085e-01
8.000      5.08727e-01
9.000      3.17531e-01
10.000      1.87505e-01
11.000      1.04764e-01
12.000      5.54163e-02
13.000      2.78514e-02
14.000      1.35809e-02
15.000      7.16946e-03
16.000      5.81224e-03
17.000      9.01351e-03
18.000      1.86523e-02
19.000      3.95601e-02
20.000      8.05583e-02
21.000      1.55666e-01
22.000      2.84874e-01
23.000      4.93569e-01
24.000      8.09582e-01
25.000      1.25716e+00
26.000      1.84818e+00
27.000      2.57231e+00
28.000      3.38945e+00
29.000      4.22833e+00
30.000      4.99395e+00
31.000      5.58417e+00
32.000      5.91175e+00
33.000      5.92549e+00
34.000      5.62342e+00
35.000      5.05345e+00
36.000      4.30145e+00
37.000      3.47097e+00
38.000      2.66176e+00
39.000      1.95369e+00
40.000      1.39976e+00
41.000      1.02814e+00
42.000      8.49871e-01
43.000      8.67538e-01
44.000      1.08050e+00
45.000      1.48443e+00
46.000      2.06539e+00
47.000      2.79116e+00
48.000      3.60442e+00
49.000      4.42212e+00
50.000      5.14405e+00
51.000      5.66977e+00
52.000      5.91997e+00
53.000      5.85524e+00
54.000      5.48594e+00
55.000      4.86947e+00
56.000      4.09609e+00
57.000      3.26803e+00
58.000      2.47922e+00
59.000      1.80121e+00
60.000      1.27836e+00
61.000      9.31387e-01
62.000      7.65721e-01
63.000      7.80289e-01
64.000      9.72907e-01
65.000      1.34044e+00
66.000      1.87413e+00
67.000      2.55254e+00
68.000      3.33590e+00
69.000      4.16577e+00
70.000      4.97218e+00
71.000      5.68804e+00
72.000      6.26696e+00
73.000      6.69860e+00
74.000      7.01539e+00
75.000      7.28702e+00
76.000      7.60349e+00
77.000      8.05168e+00
78.000      8.69338e+00
79.000      9.55143e+00
80.000      1.06075e+01
81.000      1.18100e+01
82.000      1.30875e+01
83.000      1.43612e+01
84.000      1.55528e+01
85.000      1.65873e+01
86.000      1.73941e+01
87.000      1.79088e+01
88.000      1.80803e+01
89.000      1.78806e+01
90.000      1.73139e+01
91.000      1.64226e+01
92.000      1.52836e+01
93.000      1.39994e+01
94.000      1.26829e+01
95.000      1.14444e+01
96.000      1.03819e+01
97.000      9.57679e+00
98.000      9.09291e+00
99.000      8.97596e+00
100.000      9.25030e+00
101.000      9.91356e+00
102.000      1.09313e+01
103.000      1.22350e+01
104.000      1.37253e+01
105.000      1.52814e+01
106.000      1.67747e+01
107.000      1.80839e+01
108.000      1.91095e+01
109.000      1.97862e+01
110.000      2.00912e+01
111.000      2.00476e+01
112.000      1.97208e+01
113.000      1.92061e+01
114.000      1.86107e+01
115.000      1.80318e+01
116.000      1.75370e+01
117.000      1.71525e+01
118.000      1.68625e+01
119.000      1.66202e+01
120.000      1.63673e+01
121.000      1.60558e+01
122.000      1.56663e+01
123.000      1.52151e+01
124.000      1.47491e+01
125.000      1.43300e+01
126.000      1.40124e+01
127.000      1.38244e+01
128.000      1.37558e+01
129.000      1.37583e+01
130.000      1.37561e+01
131.000      1.36634e+01
132.000      1.34033e+01
133.000      1.29235e+01
134.000      1.22049e+01
135.000      1.12641e+01
136.000      1.01490e+01
137.000      8.92946e+00
138.000      7.68650e+00
139.000      6.49999e+00
140.000      5.43764e+00
141.000      4.54613e+00
142.000      3.84567e+00
143.000      3.32891e+00
144.000      2.96475e+00
145.000      2.70637e+00
146.000      2.50214e+00
147.000      2.30662e+00
148.000      2.08904e+00
149.000      1.83732e+00
150.000      1.55688e+00
151.000      1.26564e+00
152.000      9.87158e-01
153.000      7.44467e-01
154.000      5.56319e-01
155.000      4.36334e-01
156.000      3.94414e-01
157.000      4.39092e-01
158.000      5.79426e-01
159.000      8.25468e-01
160.000      1.18702e+00
161.000      1.67098e+00
162.000      2.27796e+00
163.000      2.99885e+00
164.000      3.81216e+00
165.000      4.68300e+00
166.000      5.56490e+00
167.000      6.40581e+00
168.000      7.15883e+00
169.000      7.79632e+00
170.000      8.32355e+00
171.000      8.78615e+00
172.000      9.26575e+00
173.000      9.86161e+00
174.000      1.06615e+01
175.000      1.17104e+01
176.000      1.29887e+01
177.000      1.44078e+01
178.000      1.58271e+01
179.000      1.70875e+01
180.000      1.80508e+01
181.000      1.86338e+01
182.000      1.88267e+01
183.000      1.86919e+01
184.000      1.83452e+01
185.000      1.79225e+01
186.000      1.75441e+01
187.000      1.72830e+01
188.000      1.71491e+01
189.000      1.70940e+01
190.000      1.70380e+01
191.000      1.69112e+01
192.000      1.66965e+01
193.000      1.64586e+01
194.000      1.63449e+01
195.000      1.65563e+01
196.000      1.72923e+01
197.000      1.86878e+01
198.000      2.07608e+01
199.000      2.33881e+01
200.000      2.63189e+01
201.000      2.92226e+01
202.000      3.17588e+01
203.000      3.36494e+01
204.000      3.47335e+01
205.000      3.49901e+01
206.000      3.45254e+01
207.000      3.35287e+01
208.000      3.22129e+01
209.000      3.07576e+01
210.000      2.92707e+01
211.000      2.77814e+01
212.000      2.62615e+01
213.000      2.46646e+01
214.000      2.29660e+01
215.000      2.11851e+01
216.000      1.93827e+01
217.000      1.76367e+01
218.000      1.60105e+01
219.000      1.45297e+01
220.000      1.31787e+01
221.000      1.19192e+01
222.000      1.07202e+01
223.000      9.58683e+00
224.000      8.57506e+00
225.000      7.78774e+00
226.000      7.35289e+00
227.000      7.39229e+00
228.000      7.98949e+00
229.000      9.16543e+00
230.000      1.08669e+01
231.000      1.29699e+01
232.000      1.52979e+01
233.000      1.76515e+01
234.000      1.98433e+01
235.000      2.17326e+01
236.000      2.32505e+01
237.000      2.44087e+01
238.000      2.52894e+01
239.000      2.60190e+01
240.000      2.67301e+01
241.000      2.75257e+01
242.000      2.84541e+01
243.000      2.95018e+01
244.000      3.06045e+01
245.000      3.16703e+01
246.000      3.26038e+01
247.000      3.33215e+01
248.000      3.37550e+01
249.000      3.38442e+01
250.000      3.35293e+01
251.000      3.27497e+01
252.000      3.14565e+01
253.000      2.96316e+01
254.000      2.73095e+01
255.000      2.45862e+01
256.000      2.16130e+01
257.000      1.85729e+01
258.000      1.56480e+01
259.000      1.29887e+01
260.000      1.06933e+01
261.000      8.80248e+00
262.000      7.30751e+00
263.000      6.16679e+00
264.000      5.32489e+00
265.000      4.72872e+00
266.000      4.33842e+00
267.000      4.13265e+00
268.000      4.10941e+00
269.000      4.28374e+00
270.000      4.68304e+00
271.000      5.34037e+00
272.000      6.28494e+00
273.000      7.53006e+00
274.000      9.05926e+00
275.000      1.08137e+01
276.000      1.26849e+01
277.000      1.45175e+01
278.000      1.61246e+01
279.000      1.73144e+01
280.000      1.79246e+01
281.000      1.78546e+01
282.000      1.70876e+01
283.000      1.56960e+01
284.000      1.38282e+01
285.000      1.16800e+01
286.000      9.45939e+00
287.000      7.35279e+00
288.000      5.50110e+00
289.000      3.98857e+00
290.000      2.84426e+00
291.000      2.05234e+00
292.000      1.56659e+00
293.000      1.32478e+00
294.000      1.26049e+00
295.000      1.31141e+00
296.000      1.42448e+00
297.000      1.55876e+00
298.000      1.68660e+00
299.000      1.79387e+00
300.000      1.87924e+00
301.000      1.95254e+00
302.000      2.03199e+00
303.000      2.14003e+00
304.000      2.29782e+00
305.000      2.51917e+00
306.000      2.80519e+00
307.000      3.14171e+00
308.000      3.50047e+00
309.000      3.84464e+00
310.000      4.13689e+00
311.000      4.34773e+00
312.000      4.46130e+00
313.000      4.47691e+00
314.000      4.40630e+00
315.000      4.26818e+00
316.000      4.08211e+00
317.000      3.86393e+00
318.000      3.62362e+00
319.000      3.36560e+00
320.000      3.09066e+00
321.000      2.79847e+00
322.000      2.48989e+00
323.000      2.16853e+00
324.000      1.84140e+00
325.000      1.51846e+00
326.000      1.21141e+00
327.000      9.31709e-01
328.000      6.88650e-01
329.000      4.87795e-01
330.000      3.30340e-01
331.000      2.13448e-01
332.000      1.31374e-01
333.000      7.69164e-02
334.000      4.27895e-02
335.000      2.25985e-02
336.000      1.13223e-02
337.000      5.37843e-03
338.000      2.42129e-03
339.000      1.03265e-03
340.000      4.17110e-04
341.000      1.59530e-04
342.000      5.77628e-05
343.000      1.97975e-05
344.000      6.42212e-06
345.000      1.97158e-06
346.000      5.72780e-07
347.000      1.57461e-07
348.000      4.09594e-08
349.000      1.00812e-08
350.000      2.34766e-09
351.000      5.17268e-10
352.000      1.07831e-10
353.000      2.12674e-11
354.000      3.96847e-12
355.000      7.00592e-13
356.000      1.17014e-13
357.000      1.84900e-14
358.000      2.76415e-15
359.000      3.90941e-16
360.000      5.23099e-17
361.000      6.62183e-18
362.000      7.93036e-19
363.000      8.98521e-20
364.000      9.63126e-21
365.000      9.76692e-22
366.000      9.37024e-23
367.000      8.50477e-24
368.000      7.30286e-25
369.000      5.93256e-26
370.000      4.55941e-27
371.000      3.31508e-28
372.000      2.28033e-29
373.000      1.48394e-30
374.000      9.13600e-32
375.000      5.32124e-33
376.000      2.93216e-34
377.000      1.52855e-35
378.000      7.53856e-37
379.000      3.51735e-38
380.000      1.55260e-39
381.000      6.48371e-41
382.000      2.56156e-42
383.000      9.57418e-44
384.000      3.38546e-45
385.000      1.13253e-46
386.000      3.58427e-48
387.000      1.07317e-49
388.000      3.03987e-51
389.000      8.14627e-53
390.000      2.06529e-54
391.000      4.95358e-56
392.000      1.12402e-57
393.000      2.41296e-59
394.000      4.90051e-61
395.000      9.41565e-63
396.000      1.71150e-64
397.000      2.94321e-66
398.000      4.78833e-68
399.000      7.36993e-70
400.000      1.07315e-71
401.000      1.47834e-73
402.000      1.92667e-75
403.000      2.37552e-77
404.000      2.77093e-79
405.000      3.05781e-81
406.000      3.19237e-83
407.000      3.15307e-85
408.000      2.94627e-87
409.000      2.60452e-89
410.000      2.17822e-91
411.000      1.72342e-93
412.000      1.29003e-95
413.000      9.13537e-98
414.000     6.12026e-100
415.000     3.87910e-102
416.000     2.32600e-104
417.000     1.31949e-106
418.000     7.08142e-109
419.000     3.59544e-111
420.000     1.72704e-113
421.000     7.84817e-116
422.000     3.37406e-118
423.000     1.37232e-120
424.000     5.28049e-123
425.000     1.92226e-125
426.000     6.62013e-128
427.000     2.15694e-130
428.000     6.64858e-133
429.000     1.93882e-135
430.000     5.34887e-138
431.000     1.39606e-140
432.000     3.44719e-143
433.000     8.05273e-146
434.000     1.77967e-148
435.000     3.72094e-151
436.000     7.36009e-154
437.000     1.37731e-156
438.000     2.43836e-159
439.000     4.08396e-162
440.000     6.47116e-165
441.000     9.70066e-168
442.000     1.37574e-170
443.000     1.84583e-173
444.000     2.34295e-176
445.000     2.81354e-179
446.000     3.19639e-182
447.000     3.43545e-185
448.000     3.49322e-188
449.000     3.36036e-191
450.000     3.05818e-194
451.000     2.63304e-197
452.000     2.14472e-200
453.000     1.65272e-203
454.000     1.20489e-206
455.000     8.31023e-210
456.000     5.42246e-213
457.000     3.34731e-216
458.000     1.95486e-219
459.000     1.08007e-222
460.000     5.64551e-226
461.000     2.79174e-229
462.000     1.30606e-232
463.000     5.78055e-236
464.000     2.42043e-239
465.000     9.58813e-243
466.000     3.59329e-246
467.000     1.27400e-249
468.000     4.27330e-253
469.000     1.35605e-256
470.000     4.07103e-260
471.000     1.15625e-263
472.000     3.10682e-267
473.000     7.89764e-271
474.000     1.89932e-274
475.000     4.32130e-278
476.000     9.30142e-282
477.000     1.89410e-285
478.000     3.64898e-289
479.000     6.65058e-293
480.000     1.14674e-296
481.000     1.87063e-300
482.000     2.88688e-304
483.000     4.21489e-308
484.000     5.82186e-312
485.000     7.60773e-316
486.000     9.40503e-320
487.000     9.88131e-324
488.000      0.00000e+00
489.000      0.00000e+00
490.000      0.00000e+00
491.000      0.00000e+00
492.000      0.00000e+00
493.000      0.00000e+00
494.000      0.00000e+00
495.000      0.00000e+00
496.000      0.00000e+00
497.000      0.00000e+00
498.000      0.00000e+00
499.000      0.00000e+00
500.000      0.00000e+00
