# Gaussian folded, width=10 cm^-1
# [cm^-1] arbitrary
0.000      3.00000e+00
1.000      2.91796e+00
2.000      2.68508e+00
3.000      2.33749e+00
4.000      1.92514e+00
5.000      1.50000e+00
6.000      1.10570e+00
7.000      7.71085e-01
8.000      5.08727e-01
9.000      3.17529e-01
10.000      1.87500e-01
11.000      1.04746e-01
12.000      5.53592e-02
13.000      2.76801e-02
14.000      1.30953e-02
15.000      5.86652e-03
16.000      2.50400e-03
17.000      1.06557e-03
18.000      5.87009e-04
19.000      7.18261e-04
20.000      1.57694e-03
21.000      3.82286e-03
22.000      8.97880e-03
23.000      2.00425e-02
24.000      4.24161e-02
25.000      8.50856e-02
26.000      1.61792e-01
27.000      2.91665e-01
28.000      4.98520e-01
29.000      8.07988e-01
30.000      1.24194e+00
31.000      1.81060e+00
32.000      2.50390e+00
33.000      3.28496e+00
34.000      4.08891e+00
35.000      4.82936e+00
36.000      5.41268e+00
37.000      5.75716e+00
38.000      5.81169e+00
39.000      5.56821e+00
40.000      5.06362e+00
41.000      4.37065e+00
42.000      3.58074e+00
43.000      2.78445e+00
44.000      2.05524e+00
45.000      1.44025e+00
46.000      9.59117e-01
47.000      6.09242e-01
48.000      3.74377e-01
49.000      2.33688e-01
50.000      1.69219e-01
51.000      1.70845e-01
52.000      2.38606e-01
53.000      3.82549e-01
54.000      6.20102e-01
55.000      9.70910e-01
56.000      1.44939e+00
57.000      2.05601e+00
58.000      2.76942e+00
59.000      3.54222e+00
60.000      4.30310e+00
61.000      4.96629e+00
62.000      5.44719e+00
63.000      5.68021e+00
64.000      5.63354e+00
65.000      5.31634e+00
66.000      4.77616e+00
67.000      4.08762e+00
68.000      3.33637e+00
69.000      2.60330e+00
70.000      1.95317e+00
71.000      1.42982e+00
72.000      1.05748e+00
73.000      8.45897e-01
74.000      7.96325e-01
75.000      9.05624e-01
76.000      1.16702e+00
77.000      1.56762e+00
78.000      2.08426e+00
79.000      2.68010e+00
80.000      3.30446e+00
81.000      3.89735e+00
82.000      4.39851e+00
83.000      4.75891e+00
84.000      4.95156e+00
85.000      4.97848e+00
86.000      4.87172e+00
87.000      4.68831e+00
88.000      4.50052e+00
89.000      4.38406e+00
90.000      4.40663e+00
91.000      4.61878e+00
92.000      5.04797e+00
93.000      5.69641e+00
94.000      6.54236e+00
95.000      7.54471e+00
96.000      8.64988e+00
97.000      9.79957e+00
98.000      1.09375e+01
99.000      1.20136e+01
100.000      1.29852e+01
101.000      1.38153e+01
102.000      1.44701e+01
103.000      1.49173e+01
104.000      1.51263e+01
105.000      1.50721e+01
106.000      1.47408e+01
107.000      1.41358e+01
108.000      1.32832e+01
109.000      1.22337e+01
110.000      1.10600e+01
111.000      9.84895e+00
112.000      8.69023e+00
113.000      7.66400e+00
114.000      6.83118e+00
115.000      6.22906e+00
116.000      5.87345e+00
117.000      5.76568e+00
118.000      5.90130e+00
119.000      6.27631e+00
120.000      6.88835e+00
121.000      7.73233e+00
122.000      8.79283e+00
123.000      1.00368e+01
124.000      1.14100e+01
125.000      1.28394e+01
126.000      1.42399e+01
127.000      1.55254e+01
128.000      1.66182e+01
129.000      1.74580e+01
130.000      1.80061e+01
131.000      1.82474e+01
132.000      1.81893e+01
133.000      1.78586e+01
134.000      1.72969e+01
135.000      1.65565e+01
136.000      1.56942e+01
137.000      1.47679e+01
138.000      1.38322e+01
139.000      1.29366e+01
140.000      1.21236e+01
141.000      1.14271e+01
142.000      1.08713e+01
143.000      1.04693e+01
144.000      1.02211e+01
145.000      1.01143e+01
146.000      1.01243e+01
147.000      1.02173e+01
148.000      1.03544e+01
149.000      1.04954e+01
150.000      1.06045e+01
151.000      1.06538e+01
152.000      1.06263e+01
153.000      1.05163e+01
154.000      1.03283e+01
155.000      1.00726e+01
156.000      9.76170e+00
157.000      9.40597e+00
158.000      9.01201e+00
159.000      8.58357e+00
160.000      8.12472e+00
161.000      7.64409e+00
162.000      7.15813e+00
163.000      6.69170e+00
164.000      6.27516e+00
165.000      5.93815e+00
166.000      5.70168e+00
167.000      5.57094e+00
168.000      5.53150e+00
169.000      5.55063e+00
170.000      5.58408e+00
171.000      5.58671e+00
172.000      5.52380e+00
173.000      5.37944e+00
174.000      5.15944e+00
175.000      4.88779e+00
176.000      4.59847e+00
177.000      4.32561e+00
178.000      4.09534e+00
179.000      3.92167e+00
180.000      3.80677e+00
181.000      3.74456e+00
182.000      3.72545e+00
183.000      3.74032e+00
184.000      3.78269e+00
185.000      3.84915e+00
186.000      3.93881e+00
187.000      4.05263e+00
188.000      4.19302e+00
189.000      4.36365e+00
190.000      4.56858e+00
191.000      4.81040e+00
192.000      5.08748e+00
193.000      5.39118e+00
194.000      5.70449e+00
195.000      6.00348e+00
196.000      6.26167e+00
197.000      6.45654e+00
198.000      6.57587e+00
199.000      6.62173e+00
200.000      6.61073e+00
201.000      6.57046e+00
202.000      6.53383e+00
203.000      6.53318e+00
204.000      6.59593e+00
205.000      6.74207e+00
206.000      6.98273e+00
207.000      7.31892e+00
208.000      7.73976e+00
209.000      8.22105e+00
210.000      8.72544e+00
211.000      9.20584e+00
212.000      9.61251e+00
213.000      9.90248e+00
214.000      1.00490e+01
215.000      1.00476e+01
216.000      9.91712e+00
217.000      9.69453e+00
218.000      9.42525e+00
219.000      9.15252e+00
220.000      8.90865e+00
221.000      8.71105e+00
222.000      8.56358e+00
223.000      8.46191e+00
224.000      8.40033e+00
225.000      8.37713e+00
226.000      8.39652e+00
227.000      8.46667e+00
228.000      8.59482e+00
229.000      8.78136e+00
230.000      9.01517e+00
231.000      9.27194e+00
232.000      9.51649e+00
233.000      9.70873e+00
234.000      9.81195e+00
235.000      9.80117e+00
236.000      9.66908e+00
237.000      9.42773e+00
238.000      9.10518e+00
239.000      8.73793e+00
240.000      8.36160e+00
241.000      8.00256e+00
242.000      7.67319e+00
243.000      7.37193e+00
244.000      7.08748e+00
245.000      6.80544e+00
246.000      6.51462e+00
247.000      6.21113e+00
248.000      5.89913e+00
249.000      5.58870e+00
250.000      5.29209e+00
251.000      5.01965e+00
252.000      4.77690e+00
253.000      4.56306e+00
254.000      4.37147e+00
255.000      4.19172e+00
256.000      4.01307e+00
257.000      3.82857e+00
258.000      3.63854e+00
259.000      3.45227e+00
260.000      3.28666e+00
261.000      3.16188e+00
262.000      3.09494e+00
263.000      3.09334e+00
264.000      3.15097e+00
265.000      3.24776e+00
266.000      3.35324e+00
267.000      3.43287e+00
268.000      3.45509e+00
269.000      3.39726e+00
270.000      3.24913e+00
271.000      3.01352e+00
272.000      2.70467e+00
273.000      2.34491e+00
274.000      1.96078e+00
275.000      1.57891e+00
276.000      1.22272e+00
277.000      9.09933e-01
278.000      6.51574e-01
279.000      4.52363e-01
280.000      3.12402e-01
281.000      2.29692e-01
282.000      2.02797e-01
283.000      2.32923e-01
284.000      3.24775e-01
285.000      4.85818e-01
286.000      7.24000e-01
287.000      1.04446e+00
288.000      1.44623e+00
289.000      1.92017e+00
290.000      2.44899e+00
291.000      3.00974e+00
292.000      3.57801e+00
293.000      4.13243e+00
294.000      4.65789e+00
295.000      5.14655e+00
296.000      5.59665e+00
297.000      6.01018e+00
298.000      6.39059e+00
299.000      6.74162e+00
300.000      7.06714e+00
301.000      7.37158e+00
302.000      7.66001e+00
303.000      7.93746e+00
304.000      8.20747e+00
305.000      8.47082e+00
306.000      8.72499e+00
307.000      8.96498e+00
308.000      9.18534e+00
309.000      9.38246e+00
310.000      9.55643e+00
311.000      9.71146e+00
312.000      9.85499e+00
313.000      9.99617e+00
314.000      1.01448e+01
315.000      1.03117e+01
316.000      1.05103e+01
317.000      1.07584e+01
318.000      1.10792e+01
319.000      1.14993e+01
320.000      1.20453e+01
321.000      1.27392e+01
322.000      1.35947e+01
323.000      1.46158e+01
324.000      1.57979e+01
325.000      1.71295e+01
326.000      1.85933e+01
327.000      2.01653e+01
328.000      2.18126e+01
329.000      2.34911e+01
330.000      2.51445e+01
331.000      2.67071e+01
332.000      2.81107e+01
333.000      2.92933e+01
334.000      3.02098e+01
335.000      3.08401e+01
336.000      3.11941e+01
337.000      3.13094e+01
338.000      3.12449e+01
339.000      3.10690e+01
340.000      3.08465e+01
341.000      3.06285e+01
342.000      3.04459e+01
343.000      3.03092e+01
344.000      3.02119e+01
345.000      3.01362e+01
346.000      3.00569e+01
347.000      2.99441e+01
348.000      2.97646e+01
349.000      2.94821e+01
350.000      2.90603e+01
351.000      2.84668e+01
352.000      2.76788e+01
353.000      2.66876e+01
354.000      2.55010e+01
355.000      2.41436e+01
356.000      2.26534e+01
357.000      2.10783e+01
358.000      1.94713e+01
359.000      1.78863e+01
360.000      1.63739e+01
361.000      1.49778e+01
362.000      1.37303e+01
363.000      1.26488e+01
364.000      1.17332e+01
365.000      1.09663e+01
366.000      1.03169e+01
367.000      9.74599e+00
368.000      9.21456e+00
369.000      8.69141e+00
370.000      8.15849e+00
371.000      7.61328e+00
372.000      7.06783e+00
373.000      6.54546e+00
374.000      6.07646e+00
375.000      5.69413e+00
376.000      5.43167e+00
377.000      5.31998e+00
378.000      5.38576e+00
379.000      5.64933e+00
380.000      6.12177e+00
381.000      6.80144e+00
382.000      7.67070e+00
383.000      8.69386e+00
384.000      9.81791e+00
385.000      1.09768e+01
386.000      1.20989e+01
387.000      1.31166e+01
388.000      1.39739e+01
389.000      1.46313e+01
390.000      1.50651e+01
391.000      1.52626e+01
392.000      1.52166e+01
393.000      1.49221e+01
394.000      1.43782e+01
395.000      1.35933e+01
396.000      1.25925e+01
397.000      1.14219e+01
398.000      1.01476e+01
399.000      8.84866e+00
400.000      7.60545e+00
401.000      6.48642e+00
402.000      5.53760e+00
403.000      4.77699e+00
404.000      4.19527e+00
405.000      3.76206e+00
406.000      3.43564e+00
407.000      3.17308e+00
408.000      2.93840e+00
409.000      2.70702e+00
410.000      2.46671e+00
411.000      2.21593e+00
412.000      1.96113e+00
413.000      1.71400e+00
414.000      1.48885e+00
415.000      1.30003e+00
416.000      1.15895e+00
417.000      1.07100e+00
418.000      1.03328e+00
419.000      1.03396e+00
420.000      1.05408e+00
421.000      1.07160e+00
422.000      1.06644e+00
423.000      1.02521e+00
424.000      9.43944e-01
425.000      8.28096e-01
426.000      6.90073e-01
427.000      5.45292e-01
428.000      4.08178e-01
429.000      2.89274e-01
430.000      1.94030e-01
431.000      1.23154e-01
432.000      7.39617e-02
433.000      4.20257e-02
434.000      2.25922e-02
435.000      1.14903e-02
436.000      5.52877e-03
437.000      2.51678e-03
438.000      1.08388e-03
439.000      4.41610e-04
440.000      1.70221e-04
441.000      6.20732e-05
442.000      2.14148e-05
443.000      6.98943e-06
444.000      2.15818e-06
445.000      6.30448e-07
446.000      1.74233e-07
447.000      4.55541e-08
448.000      1.12679e-08
449.000      2.63680e-09
450.000      5.83751e-10
451.000      1.22263e-10
452.000      2.42260e-11
453.000      4.54135e-12
454.000      8.05391e-13
455.000      1.35128e-13
456.000      2.14487e-14
457.000      3.22089e-15
458.000      4.57580e-16
459.000      6.15002e-17
460.000      7.81994e-18
461.000      9.40693e-19
462.000      1.07056e-19
463.000      1.15263e-20
464.000      1.17405e-21
465.000      1.13136e-22
466.000      1.03142e-23
467.000      8.89578e-25
468.000      7.25858e-26
469.000      5.60321e-27
470.000      4.09204e-28
471.000      2.82722e-29
472.000      1.84798e-30
473.000      1.14276e-31
474.000      6.68539e-33
475.000      3.70013e-34
476.000      1.93743e-35
477.000      9.59736e-37
478.000      4.49775e-38
479.000      1.99415e-39
480.000      8.36441e-41
481.000      3.31919e-42
482.000      1.24608e-43
483.000      4.42566e-45
484.000      1.48705e-46
485.000      4.72709e-48
486.000      1.42160e-49
487.000      4.04464e-51
488.000      1.08868e-52
489.000      2.77228e-54
490.000      6.67870e-56
491.000      1.52217e-57
492.000      3.28212e-59
493.000      6.69517e-61
494.000      1.29207e-62
495.000      2.35901e-64
496.000      4.07465e-66
497.000      6.65837e-68
498.000      1.02935e-69
499.000      1.50549e-71
500.000      2.08309e-73
