# Gaussian folded, width=10 cm^-1
# [cm^-1] arbitrary
0.000      3.00000e+00
1.000      2.91796e+00
2.000      2.68508e+00
3.000      2.33749e+00
4.000      1.92514e+00
5.000      1.50000e+00
6.000      1.10570e+00
7.000      7.71085e-01
8.000      5.08727e-01
9.000      3.17529e-01
10.000      1.87500e-01
11.000      1.04746e-01
12.000      5.53592e-02
13.000      2.76801e-02
14.000      1.30954e-02
15.000      5.86682e-03
16.000      2.50481e-03
17.000      1.06754e-03
18.000      5.91418e-04
19.000      7.27104e-04
20.000      1.59235e-03
21.000      3.84436e-03
22.000      8.99603e-03
23.000      2.00199e-02
24.000      4.22671e-02
25.000      8.46388e-02
26.000      1.60761e-01
27.000      2.89644e-01
28.000      4.95056e-01
29.000      8.02733e-01
30.000      1.23492e+00
31.000      1.80247e+00
32.000      2.49616e+00
33.000      3.27986e+00
34.000      4.08899e+00
35.000      4.83669e+00
36.000      5.42802e+00
37.000      5.77934e+00
38.000      5.83763e+00
39.000      5.59362e+00
40.000      5.08413e+00
41.000      4.38305e+00
42.000      3.58377e+00
43.000      2.77894e+00
44.000      2.04356e+00
45.000      1.42545e+00
46.000      9.44086e-01
47.000      5.96135e-01
48.000      3.64441e-01
49.000      2.27416e-01
50.000      1.66641e-01
51.000      1.71802e-01
52.000      2.42898e-01
53.000      3.89933e-01
54.000      6.30220e-01
55.000      9.83263e-01
56.000      1.46346e+00
57.000      2.07158e+00
58.000      2.78694e+00
59.000      3.56303e+00
60.000      4.32913e+00
61.000      4.99926e+00
62.000      5.48738e+00
63.000      5.72535e+00
64.000      5.67849e+00
65.000      5.35389e+00
66.000      4.79884e+00
67.000      4.08977e+00
68.000      3.31572e+00
69.000      2.56118e+00
70.000      1.89338e+00
71.000      1.35663e+00
72.000      9.73609e-01
73.000      7.51555e-01
74.000      6.89799e-01
75.000      7.85559e-01
76.000      1.03591e+00
77.000      1.43547e+00
78.000      1.97099e+00
79.000      2.61527e+00
80.000      3.32332e+00
81.000      4.03332e+00
82.000      4.67354e+00
83.000      5.17439e+00
84.000      5.48306e+00
85.000      5.57681e+00
86.000      5.47120e+00
87.000      5.22062e+00
88.000      4.91071e+00
89.000      4.64387e+00
90.000      4.52103e+00
91.000      4.62344e+00
92.000      4.99827e+00
93.000      5.65118e+00
94.000      6.54758e+00
95.000      7.62200e+00
96.000      8.79291e+00
97.000      9.97862e+00
98.000      1.11095e+01
99.000      1.21333e+01
100.000      1.30137e+01
101.000      1.37241e+01
102.000      1.42409e+01
103.000      1.45410e+01
104.000      1.46031e+01
105.000      1.44134e+01
106.000      1.39729e+01
107.000      1.33020e+01
108.000      1.24422e+01
109.000      1.14530e+01
110.000      1.04063e+01
111.000      9.37814e+00
112.000      8.44031e+00
113.000      7.65301e+00
114.000      7.05975e+00
115.000      6.68567e+00
116.000      6.53944e+00
117.000      6.61762e+00
118.000      6.90960e+00
119.000      7.40109e+00
120.000      8.07478e+00
121.000      8.90824e+00
122.000      9.87049e+00
123.000      1.09195e+01
124.000      1.20023e+01
125.000      1.30594e+01
126.000      1.40316e+01
127.000      1.48686e+01
128.000      1.55358e+01
129.000      1.60176e+01
130.000      1.63158e+01
131.000      1.64440e+01
132.000      1.64207e+01
133.000      1.62632e+01
134.000      1.59862e+01
135.000      1.56036e+01
136.000      1.51333e+01
137.000      1.46028e+01
138.000      1.40500e+01
139.000      1.35210e+01
140.000      1.30607e+01
141.000      1.27036e+01
142.000      1.24632e+01
143.000      1.23279e+01
144.000      1.22619e+01
145.000      1.22131e+01
146.000      1.21240e+01
147.000      1.19430e+01
148.000      1.16339e+01
149.000      1.11804e+01
150.000      1.05871e+01
151.000      9.87617e+00
152.000      9.08239e+00
153.000      8.24802e+00
154.000      7.41780e+00
155.000      6.63538e+00
156.000      5.94118e+00
157.000      5.37095e+00
158.000      4.95441e+00
159.000      4.71318e+00
160.000      4.65798e+00
161.000      4.78553e+00
162.000      5.07636e+00
163.000      5.49468e+00
164.000      5.99107e+00
165.000      6.50778e+00
166.000      6.98586e+00
167.000      7.37265e+00
168.000      7.62803e+00
169.000      7.72853e+00
170.000      7.66885e+00
171.000      7.46101e+00
172.000      7.13172e+00
173.000      6.71870e+00
174.000      6.26599e+00
175.000      5.81862e+00
176.000      5.41673e+00
177.000      5.08978e+00
178.000      4.85207e+00
179.000      4.70089e+00
180.000      4.61811e+00
181.000      4.57552e+00
182.000      4.54255e+00
183.000      4.49458e+00
184.000      4.41927e+00
185.000      4.31916e+00
186.000      4.20971e+00
187.000      4.11364e+00
188.000      4.05329e+00
189.000      4.04369e+00
190.000      4.08815e+00
191.000      4.17772e+00
192.000      4.29438e+00
193.000      4.41684e+00
194.000      4.52711e+00
195.000      4.61618e+00
196.000      4.68726e+00
197.000      4.75575e+00
198.000      4.84593e+00
199.000      4.98502e+00
200.000      5.19620e+00
201.000      5.49229e+00
202.000      5.87200e+00
203.000      6.32005e+00
204.000      6.81093e+00
205.000      7.31518e+00
206.000      7.80572e+00
207.000      8.26234e+00
208.000      8.67293e+00
209.000      9.03183e+00
210.000      9.33703e+00
211.000      9.58785e+00
212.000      9.78464e+00
213.000      9.93024e+00
214.000      1.00322e+01
215.000      1.01036e+01
216.000      1.01620e+01
217.000      1.02261e+01
218.000      1.03110e+01
219.000      1.04243e+01
220.000      1.05640e+01
221.000      1.07186e+01
222.000      1.08696e+01
223.000      1.09959e+01
224.000      1.10782e+01
225.000      1.11028e+01
226.000      1.10633e+01
227.000      1.09603e+01
228.000      1.07985e+01
229.000      1.05836e+01
230.000      1.03201e+01
231.000      1.00120e+01
232.000      9.66491e+00
233.000      9.28943e+00
234.000      8.90250e+00
235.000      8.52563e+00
236.000      8.18025e+00
237.000      7.88206e+00
238.000      7.63695e+00
239.000      7.44052e+00
240.000      7.28132e+00
241.000      7.14651e+00
242.000      7.02717e+00
243.000      6.92102e+00
244.000      6.83164e+00
245.000      6.76455e+00
246.000      6.72214e+00
247.000      6.69985e+00
248.000      6.68533e+00
249.000      6.66115e+00
250.000      6.60977e+00
251.000      6.51884e+00
252.000      6.38421e+00
253.000      6.20950e+00
254.000      6.00251e+00
255.000      5.77024e+00
256.000      5.51505e+00
257.000      5.23395e+00
258.000      4.92140e+00
259.000      4.57446e+00
260.000      4.19791e+00
261.000      3.80696e+00
262.000      3.42587e+00
263.000      3.08279e+00
264.000      2.80211e+00
265.000      2.59698e+00
266.000      2.46456e+00
267.000      2.38579e+00
268.000      2.32997e+00
269.000      2.26284e+00
270.000      2.15562e+00
271.000      1.99217e+00
272.000      1.77208e+00
273.000      1.50917e+00
274.000      1.22642e+00
275.000      9.49262e-01
276.000      6.99648e-01
277.000      4.92425e-01
278.000      3.34570e-01
279.000      2.26789e-01
280.000      1.66389e-01
281.000      1.50256e-01
282.000      1.77047e-01
283.000      2.48157e-01
284.000      3.67439e-01
285.000      5.39967e-01
286.000      7.70288e-01
287.000      1.06061e+00
288.000      1.40931e+00
289.000      1.80989e+00
290.000      2.25066e+00
291.000      2.71513e+00
292.000      3.18346e+00
293.000      3.63513e+00
294.000      4.05257e+00
295.000      4.42528e+00
296.000      4.75277e+00
297.000      5.04538e+00
298.000      5.32189e+00
299.000      5.60469e+00
300.000      5.91392e+00
301.000      6.26264e+00
302.000      6.65449e+00
303.000      7.08407e+00
304.000      7.53949e+00
305.000      8.00565e+00
306.000      8.46738e+00
307.000      8.91199e+00
308.000      9.33095e+00
309.000      9.72090e+00
310.000      1.00837e+01
311.000      1.04258e+01
312.000      1.07561e+01
313.000      1.10852e+01
314.000      1.14238e+01
315.000      1.17831e+01
316.000      1.21758e+01
317.000      1.26163e+01
318.000      1.31194e+01
319.000      1.36976e+01
320.000      1.43572e+01
321.000      1.50953e+01
322.000      1.58998e+01
323.000      1.67522e+01
324.000      1.76341e+01
325.000      1.85327e+01
326.000      1.94445e+01
327.000      2.03747e+01
328.000      2.13305e+01
329.000      2.23139e+01
330.000      2.33141e+01
331.000      2.43056e+01
332.000      2.52512e+01
333.000      2.61108e+01
334.000      2.68512e+01
335.000      2.74537e+01
336.000      2.79177e+01
337.000      2.82576e+01
338.000      2.84964e+01
339.000      2.86585e+01
340.000      2.87633e+01
341.000      2.88230e+01
342.000      2.88440e+01
343.000      2.88303e+01
344.000      2.87871e+01
345.000      2.87221e+01
346.000      2.86440e+01
347.000      2.85582e+01
348.000      2.84626e+01
349.000      2.83441e+01
350.000      2.81784e+01
351.000      2.79333e+01
352.000      2.75739e+01
353.000      2.70692e+01
354.000      2.63969e+01
355.000      2.55470e+01
356.000      2.45224e+01
357.000      2.33374e+01
358.000      2.20148e+01
359.000      2.05832e+01
360.000      1.90747e+01
361.000      1.75242e+01
362.000      1.59690e+01
363.000      1.44488e+01
364.000      1.30052e+01
365.000      1.16787e+01
366.000      1.05034e+01
367.000      9.50125e+00
368.000      8.67628e+00
369.000      8.01255e+00
370.000      7.47736e+00
371.000      7.02958e+00
372.000      6.63122e+00
373.000      6.25849e+00
374.000      5.90861e+00
375.000      5.60032e+00
376.000      5.36830e+00
377.000      5.25396e+00
378.000      5.29585e+00
379.000      5.52247e+00
380.000      5.94850e+00
381.000      6.57414e+00
382.000      7.38622e+00
383.000      8.35963e+00
384.000      9.45843e+00
385.000      1.06365e+01
386.000      1.18381e+01
387.000      1.29987e+01
388.000      1.40468e+01
389.000      1.49076e+01
390.000      1.55083e+01
391.000      1.57862e+01
392.000      1.56981e+01
393.000      1.52294e+01
394.000      1.44002e+01
395.000      1.32665e+01
396.000      1.19154e+01
397.000      1.04534e+01
398.000      8.99275e+00
399.000      7.63664e+00
400.000      6.46715e+00
401.000      5.53702e+00
402.000      4.86589e+00
403.000      4.44063e+00
404.000      4.21955e+00
405.000      4.14000e+00
406.000      4.12873e+00
407.000      4.11401e+00
408.000      4.03718e+00
409.000      3.86158e+00
410.000      3.57674e+00
411.000      3.19715e+00
412.000      2.75637e+00
413.000      2.29811e+00
414.000      1.86689e+00
415.000      1.49990e+00
416.000      1.22152e+00
417.000      1.04070e+00
418.000      9.51118e-01
419.000      9.33735e-01
420.000      9.61049e-01
421.000      1.00254e+00
422.000      1.03036e+00
423.000      1.02422e+00
424.000      9.74413e-01
425.000      8.82251e-01
426.000      7.58013e-01
427.000      6.17092e-01
428.000      4.75645e-01
429.000      3.46983e-01
430.000      2.39520e-01
431.000      1.56437e-01
432.000      9.66667e-02
433.000      5.65126e-02
434.000      3.12563e-02
435.000      1.63550e-02
436.000      8.09622e-03
437.000      3.79169e-03
438.000      1.67997e-03
439.000      7.04188e-04
440.000      2.79250e-04
441.000      1.04765e-04
442.000      3.71839e-05
443.000      1.24857e-05
444.000      3.96631e-06
445.000      1.19201e-06
446.000      3.38914e-07
447.000      9.11626e-08
448.000      2.31986e-08
449.000      5.58503e-09
450.000      1.27205e-09
451.000      2.74097e-10
452.000      5.58752e-11
453.000      1.07759e-11
454.000      1.96609e-12
455.000      3.39369e-13
456.000      5.54189e-14
457.000      8.56174e-15
458.000      1.25136e-15
459.000      1.73030e-16
460.000      2.26349e-17
461.000      2.80126e-18
462.000      3.27978e-19
463.000      3.63290e-20
464.000      3.80698e-21
465.000      3.77420e-22
466.000      3.53987e-23
467.000      3.14099e-24
468.000      2.63672e-25
469.000      2.09401e-26
470.000      1.57330e-27
471.000      1.11831e-28
472.000      7.52020e-30
473.000      4.78426e-31
474.000      2.87951e-32
475.000      1.63960e-33
476.000      8.83236e-35
477.000      4.50124e-36
478.000      2.17023e-37
479.000      9.89912e-39
480.000      4.27174e-40
481.000      1.74394e-41
482.000      6.73558e-43
483.000      2.46114e-44
484.000      8.50776e-46
485.000      2.78235e-47
486.000      8.60847e-49
487.000      2.51975e-50
488.000      6.97761e-52
489.000      1.82799e-53
490.000      4.53063e-55
491.000      1.06233e-56
492.000      2.35657e-58
493.000      4.94558e-60
494.000      9.81911e-62
495.000      1.84436e-63
496.000      3.27744e-65
497.000      5.50989e-67
498.000      8.76331e-69
499.000      1.31859e-70
500.000      1.87703e-72
