# Gaussian folded, width=10 cm^-1
# [cm^-1] arbitrary
0.000      3.00000e+00
1.000      2.91796e+00
2.000      2.68508e+00
3.000      2.33749e+00
4.000      1.92514e+00
5.000      1.50000e+00
6.000      1.10570e+00
7.000      7.71085e-01
8.000      5.08727e-01
9.000      3.17529e-01
10.000      1.87500e-01
11.000      1.04746e-01
12.000      5.53590e-02
13.000      2.76795e-02
14.000      1.30933e-02
15.000      5.85982e-03
16.000      2.48233e-03
17.000      9.99291e-04
18.000      3.95219e-04
19.000      1.93306e-04
20.000      2.17995e-04
21.000      4.96255e-04
22.000      1.27994e-03
23.000      3.20138e-03
24.000      7.60643e-03
25.000      1.71281e-02
26.000      3.65466e-02
27.000      7.38976e-02
28.000      1.41617e-01
29.000      2.57256e-01
30.000      4.43049e-01
31.000      7.23529e-01
32.000      1.12064e+00
33.000      1.64658e+00
34.000      2.29571e+00
35.000      3.03801e+00
36.000      3.81710e+00
37.000      4.55504e+00
38.000      5.16438e+00
39.000      5.56509e+00
40.000      5.70193e+00
41.000      5.55692e+00
42.000      5.15321e+00
43.000      4.54895e+00
44.000      3.82369e+00
45.000      3.06142e+00
46.000      2.33527e+00
47.000      1.69750e+00
48.000      1.17598e+00
49.000      7.76606e-01
50.000      4.89235e-01
51.000      2.94914e-01
52.000      1.72354e-01
53.000      1.02721e-01
54.000      7.26180e-02
55.000      7.56450e-02
56.000      1.13045e-01
57.000      1.93696e-01
58.000      3.33320e-01
59.000      5.52407e-01
60.000      8.72324e-01
61.000      1.30940e+00
62.000      1.86767e+00
63.000      2.53191e+00
64.000      3.26346e+00
65.000      4.00113e+00
66.000      4.66849e+00
67.000      5.18673e+00
68.000      5.49014e+00
69.000      5.53993e+00
70.000      5.33235e+00
71.000      4.89874e+00
72.000      4.29797e+00
73.000      3.60361e+00
74.000      2.89015e+00
75.000      2.22153e+00
76.000      1.64470e+00
77.000      1.18855e+00
78.000      8.67160e-01
79.000      6.85448e-01
80.000      6.44607e-01
81.000      7.45468e-01
82.000      9.88464e-01
83.000      1.37014e+00
84.000      1.87746e+00
85.000      2.48224e+00
86.000      3.13849e+00
87.000      3.78489e+00
88.000      4.35303e+00
89.000      4.77992e+00
90.000      5.02128e+00
91.000      5.06173e+00
92.000      4.91864e+00
93.000      4.63899e+00
94.000      4.29059e+00
95.000      3.95085e+00
96.000      3.69594e+00
97.000      3.59191e+00
98.000      3.68794e+00
99.000      4.01102e+00
100.000      4.56184e+00
101.000      5.31320e+00
102.000      6.21270e+00
103.000      7.19142e+00
104.000      8.17766e+00
105.000      9.11234e+00
106.000      9.96066e+00
107.000      1.07151e+01
108.000      1.13880e+01
109.000      1.19964e+01
110.000      1.25449e+01
111.000      1.30147e+01
112.000      1.33625e+01
113.000      1.35311e+01
114.000      1.34669e+01
115.000      1.31382e+01
116.000      1.25472e+01
117.000      1.17326e+01
118.000      1.07617e+01
119.000      9.71791e+00
120.000      8.68553e+00
121.000      7.73917e+00
122.000      6.93794e+00
123.000      6.32511e+00
124.000      5.93046e+00
125.000      5.77280e+00
126.000      5.86066e+00
127.000      6.19116e+00
128.000      6.74797e+00
129.000      7.50043e+00
130.000      8.40508e+00
131.000      9.40991e+00
132.000      1.04602e+01
133.000      1.15043e+01
134.000      1.24973e+01
135.000      1.34022e+01
136.000      1.41886e+01
137.000      1.48309e+01
138.000      1.53070e+01
139.000      1.55992e+01
140.000      1.56959e+01
141.000      1.55948e+01
142.000      1.53050e+01
143.000      1.48479e+01
144.000      1.42563e+01
145.000      1.35726e+01
146.000      1.28443e+01
147.000      1.21205e+01
148.000      1.14457e+01
149.000      1.08563e+01
150.000      1.03763e+01
151.000      1.00159e+01
152.000      9.77226e+00
153.000      9.63224e+00
154.000      9.57776e+00
155.000      9.59195e+00
156.000      9.66462e+00
157.000      9.79464e+00
158.000      9.98759e+00
159.000      1.02485e+01
160.000      1.05720e+01
161.000      1.09336e+01
162.000      1.12868e+01
163.000      1.15666e+01
164.000      1.17010e+01
165.000      1.16252e+01
166.000      1.12959e+01
167.000      1.07014e+01
168.000      9.86491e+00
169.000      8.84172e+00
170.000      7.70958e+00
171.000      6.55589e+00
172.000      5.46367e+00
173.000      4.49963e+00
174.000      3.70717e+00
175.000      3.10528e+00
176.000      2.69300e+00
177.000      2.45708e+00
178.000      2.37989e+00
179.000      2.44503e+00
180.000      2.63932e+00
181.000      2.95136e+00
182.000      3.36784e+00
183.000      3.86922e+00
184.000      4.42648e+00
185.000      5.00016e+00
186.000      5.54241e+00
187.000      6.00206e+00
188.000      6.33194e+00
189.000      6.49655e+00
190.000      6.47844e+00
191.000      6.28125e+00
192.000      5.92884e+00
193.000      5.46088e+00
194.000      4.92633e+00
195.000      4.37648e+00
196.000      3.85881e+00
197.000      3.41225e+00
198.000      3.06382e+00
199.000      2.82643e+00
200.000      2.69799e+00
201.000      2.66218e+00
202.000      2.69152e+00
203.000      2.75237e+00
204.000      2.81135e+00
205.000      2.84138e+00
206.000      2.82594e+00
207.000      2.76037e+00
208.000      2.65017e+00
209.000      2.50696e+00
210.000      2.34377e+00
211.000      2.17088e+00
212.000      1.99362e+00
213.000      1.81247e+00
214.000      1.62505e+00
215.000      1.42911e+00
216.000      1.22514e+00
217.000      1.01765e+00
218.000      8.14633e-01
219.000      6.25648e-01
220.000      4.59364e-01
221.000      3.21554e-01
222.000      2.14155e-01
223.000      1.35494e-01
224.000      8.13465e-02
225.000      4.63053e-02
226.000      2.49768e-02
227.000      1.27605e-02
228.000      6.17285e-03
229.000      2.82677e-03
230.000      1.22521e-03
231.000      5.02563e-04
232.000      1.95071e-04
233.000      7.16458e-05
234.000      2.48978e-05
235.000      8.18636e-06
236.000      2.54664e-06
237.000      7.49522e-07
238.000      2.08706e-07
239.000      5.49812e-08
240.000      1.37031e-08
241.000      3.23110e-09
242.000      7.20779e-10
243.000      1.52116e-10
244.000      3.03717e-11
245.000      5.73724e-12
246.000      1.02738e-12
247.000      1.88214e-13
248.000      1.24449e-13
249.000      5.98717e-13
250.000      3.45776e-12
251.000      1.90196e-11
252.000      9.89938e-11
253.000      4.87468e-10
254.000      2.27098e-09
255.000      1.00094e-08
256.000      4.17386e-08
257.000      1.64663e-07
258.000      6.14596e-07
259.000      2.17029e-06
260.000      7.25075e-06
261.000      2.29188e-05
262.000      6.85405e-05
263.000      1.93936e-04
264.000      5.19205e-04
265.000      1.31523e-03
266.000      3.15265e-03
267.000      7.15141e-03
268.000      1.53532e-02
269.000      3.12013e-02
270.000      6.00365e-02
271.000      1.09416e-01
272.000      1.88966e-01
273.000      3.09492e-01
274.000      4.81214e-01
275.000      7.11398e-01
276.000      1.00210e+00
277.000      1.34907e+00
278.000      1.74271e+00
279.000      2.17129e+00
280.000      2.62527e+00
281.000      3.10060e+00
282.000      3.59869e+00
283.000      4.12175e+00
284.000      4.66477e+00
285.000      5.20762e+00
286.000      5.71201e+00
287.000      6.12696e+00
288.000      6.40306e+00
289.000      6.51164e+00
290.000      6.46221e+00
291.000      6.31096e+00
292.000      6.15607e+00
293.000      6.11978e+00
294.000      6.32210e+00
295.000      6.85323e+00
296.000      7.75211e+00
297.000      8.99588e+00
298.000      1.05019e+01
299.000      1.21404e+01
300.000      1.37545e+01
301.000      1.51819e+01
302.000      1.62774e+01
303.000      1.69311e+01
304.000      1.70833e+01
305.000      1.67338e+01
306.000      1.59457e+01
307.000      1.48400e+01
308.000      1.35812e+01
309.000      1.23540e+01
310.000      1.13341e+01
311.000      1.06571e+01
312.000      1.03951e+01
313.000      1.05430e+01
314.000      1.10210e+01
315.000      1.16920e+01
316.000      1.23915e+01
317.000      1.29647e+01
318.000      1.33032e+01
319.000      1.33747e+01
320.000      1.32377e+01
321.000      1.30375e+01
322.000      1.29830e+01
323.000      1.33083e+01
324.000      1.42262e+01
325.000      1.58850e+01
326.000      1.83352e+01
327.000      2.15143e+01
328.000      2.52509e+01
329.000      2.92864e+01
330.000      3.33115e+01
331.000      3.70100e+01
332.000      4.01013e+01
333.000      4.23755e+01
334.000      4.37145e+01
335.000      4.40966e+01
336.000      4.35869e+01
337.000      4.23182e+01
338.000      4.04679e+01
339.000      3.82355e+01
340.000      3.58231e+01
341.000      3.34194e+01
342.000      3.11880e+01
343.000      2.92597e+01
344.000      2.77295e+01
345.000      2.66576e+01
346.000      2.60732e+01
347.000      2.59755e+01
348.000      2.63338e+01
349.000      2.70832e+01
350.000      2.81224e+01
351.000      2.93151e+01
352.000      3.05014e+01
353.000      3.15163e+01
354.000      3.22120e+01
355.000      3.24775e+01
356.000      3.22504e+01
357.000      3.15174e+01
358.000      3.03070e+01
359.000      2.86777e+01
360.000      2.67062e+01
361.000      2.44792e+01
362.000      2.20874e+01
363.000      1.96229e+01
364.000      1.71770e+01
365.000      1.48365e+01
366.000      1.26788e+01
367.000      1.07656e+01
368.000      9.13789e+00
369.000      7.81296e+00
370.000      6.78616e+00
371.000      6.03663e+00
372.000      5.53568e+00
373.000      5.25478e+00
374.000      5.17080e+00
375.000      5.26726e+00
376.000      5.53259e+00
377.000      5.95744e+00
378.000      6.53320e+00
379.000      7.25278e+00
380.000      8.11211e+00
381.000      9.11008e+00
382.000      1.02445e+01
383.000      1.15045e+01
384.000      1.28618e+01
385.000      1.42674e+01
386.000      1.56554e+01
387.000      1.69566e+01
388.000      1.81155e+01
389.000      1.91036e+01
390.000      1.99218e+01
391.000      2.05903e+01
392.000      2.11294e+01
393.000      2.15401e+01
394.000      2.17928e+01
395.000      2.18302e+01
396.000      2.15813e+01
397.000      2.09837e+01
398.000      2.00034e+01
399.000      1.86482e+01
400.000      1.69708e+01
401.000      1.50625e+01
402.000      1.30399e+01
403.000      1.10285e+01
404.000      9.14522e+00
405.000      7.48397e+00
406.000      6.10521e+00
407.000      5.03183e+00
408.000      4.25142e+00
409.000      3.72398e+00
410.000      3.39287e+00
411.000      3.19633e+00
412.000      3.07727e+00
413.000      2.98965e+00
414.000      2.90140e+00
415.000      2.79420e+00
416.000      2.66138e+00
417.000      2.50495e+00
418.000      2.33261e+00
419.000      2.15520e+00
420.000      1.98421e+00
421.000      1.82959e+00
422.000      1.69748e+00
423.000      1.58859e+00
424.000      1.49789e+00
425.000      1.41602e+00
426.000      1.33255e+00
427.000      1.23997e+00
428.000      1.13700e+00
429.000      1.02997e+00
430.000      9.31354e-01
431.000      8.55958e-01
432.000      8.16015e-01
433.000      8.16704e-01
434.000      8.53644e-01
435.000      9.13183e-01
436.000      9.75415e-01
437.000      1.01907e+00
438.000      1.02680e+00
439.000      9.89271e-01
440.000      9.06934e-01
441.000      7.89045e-01
442.000      6.50523e-01
443.000      5.07836e-01
444.000      3.75235e-01
445.000      2.62366e-01
446.000      1.73575e-01
447.000      1.08646e-01
448.000      6.43388e-02
449.000      3.60462e-02
450.000      1.91059e-02
451.000      9.58065e-03
452.000      4.54508e-03
453.000      2.03989e-03
454.000      8.66143e-04
455.000      3.47929e-04
456.000      1.32224e-04
457.000      4.75385e-05
458.000      1.61696e-05
459.000      5.20320e-06
460.000      1.58402e-06
461.000      4.56211e-07
462.000      1.24305e-07
463.000      3.20429e-08
464.000      7.81432e-09
465.000      1.80289e-09
466.000      3.93516e-10
467.000      8.12597e-11
468.000      1.58747e-11
469.000      2.93395e-12
470.000      5.13000e-13
471.000      8.48594e-14
472.000      1.32801e-14
473.000      1.96616e-15
474.000      2.75393e-16
475.000      3.64927e-17
476.000      4.57485e-18
477.000      5.42582e-19
478.000      6.08795e-20
479.000      6.46241e-21
480.000      6.48986e-22
481.000      6.16586e-23
482.000      5.54205e-24
483.000      4.71264e-25
484.000      3.79119e-26
485.000      2.88539e-27
486.000      2.07755e-28
487.000      1.41519e-29
488.000      9.12005e-31
489.000      5.56028e-32
490.000      3.20711e-33
491.000      1.75004e-34
492.000      9.03442e-36
493.000      4.41235e-37
494.000      2.03872e-38
495.000      8.91174e-40
496.000      3.68540e-41
497.000      1.44187e-42
498.000      5.33683e-44
499.000      1.86878e-45
500.000      6.19087e-47
