# Gaussian folded, width=10 cm^-1
# [cm^-1] arbitrary
0.000      3.00000e+00
1.000      2.91796e+00
2.000      2.68508e+00
3.000      2.33749e+00
4.000      1.92514e+00
5.000      1.50000e+00
6.000      1.10570e+00
7.000      7.71085e-01
8.000      5.08727e-01
9.000      3.17529e-01
10.000      1.87500e-01
11.000      1.04746e-01
12.000      5.53590e-02
13.000      2.76795e-02
14.000      1.30933e-02
15.000      5.85987e-03
16.000      2.48249e-03
17.000      9.99782e-04
18.000      3.96674e-04
19.000      1.97367e-04
20.000      2.28639e-04
21.000      5.22430e-04
22.000      1.34025e-03
23.000      3.33133e-03
24.000      7.86773e-03
25.000      1.76170e-02
26.000      3.73941e-02
27.000      7.52512e-02
28.000      1.43591e-01
29.000      2.59847e-01
30.000      4.46029e-01
31.000      7.26354e-01
32.000      1.12244e+00
33.000      1.64631e+00
34.000      2.29243e+00
35.000      3.03129e+00
36.000      3.80737e+00
37.000      4.54374e+00
38.000      5.15370e+00
39.000      5.55739e+00
40.000      5.69899e+00
41.000      5.55939e+00
42.000      5.16034e+00
43.000      4.55892e+00
44.000      3.83422e+00
45.000      3.07046e+00
46.000      2.34155e+00
47.000      1.70067e+00
48.000      1.17649e+00
49.000      7.75300e-01
50.000      4.87043e-01
51.000      2.92558e-01
52.000      1.70227e-01
53.000      1.00866e-01
54.000      7.07213e-02
55.000      7.30031e-02
56.000      1.08478e-01
57.000      1.85466e-01
58.000      3.19175e-01
59.000      5.29931e-01
60.000      8.39721e-01
61.000      1.26673e+00
62.000      1.81825e+00
63.000      2.48331e+00
64.000      3.22733e+00
65.000      3.99128e+00
66.000      4.69734e+00
67.000      5.26088e+00
68.000      5.60679e+00
69.000      5.68574e+00
70.000      5.48575e+00
71.000      5.03515e+00
72.000      4.39624e+00
73.000      3.65145e+00
74.000      2.88653e+00
75.000      2.17568e+00
76.000      1.57240e+00
77.000      1.10743e+00
78.000      7.92677e-01
79.000      6.28554e-01
80.000      6.11219e-01
81.000      7.37185e-01
82.000      1.00377e+00
83.000      1.40549e+00
84.000      1.92807e+00
85.000      2.54251e+00
86.000      3.20227e+00
87.000      3.84578e+00
88.000      4.40469e+00
89.000      4.81641e+00
90.000      5.03744e+00
91.000      5.05340e+00
92.000      4.88268e+00
93.000      4.57270e+00
94.000      4.19060e+00
95.000      3.81155e+00
96.000      3.50796e+00
97.000      3.34189e+00
98.000      3.36055e+00
99.000      3.59401e+00
100.000      4.05375e+00
101.000      4.73181e+00
102.000      5.60105e+00
103.000      6.61758e+00
104.000      7.72598e+00
105.000      8.86646e+00
106.000      9.98245e+00
107.000      1.10264e+01
108.000      1.19620e+01
109.000      1.27636e+01
110.000      1.34119e+01
111.000      1.38899e+01
112.000      1.41796e+01
113.000      1.42614e+01
114.000      1.41169e+01
115.000      1.37337e+01
116.000      1.31112e+01
117.000      1.22667e+01
118.000      1.12375e+01
119.000      1.00819e+01
120.000      8.87460e+00
121.000      7.70094e+00
122.000      6.64794e+00
123.000      5.79580e+00
124.000      5.21022e+00
125.000      4.93671e+00
126.000      4.99674e+00
127.000      5.38591e+00
128.000      6.07408e+00
129.000      7.00784e+00
130.000      8.11605e+00
131.000      9.31824e+00
132.000      1.05348e+01
133.000      1.16960e+01
134.000      1.27483e+01
135.000      1.36546e+01
136.000      1.43918e+01
137.000      1.49451e+01
138.000      1.53058e+01
139.000      1.54709e+01
140.000      1.54463e+01
141.000      1.52495e+01
142.000      1.49095e+01
143.000      1.44626e+01
144.000      1.39461e+01
145.000      1.33925e+01
146.000      1.28270e+01
147.000      1.22693e+01
148.000      1.17367e+01
149.000      1.12472e+01
150.000      1.08188e+01
151.000      1.04662e+01
152.000      1.01964e+01
153.000      1.00074e+01
154.000      9.88957e+00
155.000      9.83157e+00
156.000      9.82635e+00
157.000      9.87419e+00
158.000      9.98056e+00
159.000      1.01488e+01
160.000      1.03710e+01
161.000      1.06218e+01
162.000      1.08588e+01
163.000      1.10291e+01
164.000      1.10817e+01
165.000      1.09788e+01
166.000      1.07031e+01
167.000      1.02590e+01
168.000      9.66816e+00
169.000      8.96293e+00
170.000      8.17970e+00
171.000      7.35464e+00
172.000      6.52117e+00
173.000      5.70864e+00
174.000      4.94163e+00
175.000      4.23972e+00
176.000      3.61857e+00
177.000      3.09217e+00
178.000      2.67595e+00
179.000      2.38893e+00
180.000      2.25332e+00
181.000      2.29042e+00
182.000      2.51303e+00
183.000      2.91651e+00
184.000      3.47150e+00
185.000      4.12174e+00
186.000      4.78923e+00
187.000      5.38686e+00
188.000      5.83573e+00
189.000      6.08230e+00
190.000      6.11010e+00
191.000      5.94185e+00
192.000      5.63134e+00
193.000      5.24775e+00
194.000      4.85760e+00
195.000      4.50993e+00
196.000      4.22882e+00
197.000      4.01404e+00
198.000      3.84818e+00
199.000      3.70648e+00
200.000      3.56607e+00
201.000      3.41202e+00
202.000      3.23960e+00
203.000      3.05322e+00
204.000      2.86331e+00
205.000      2.68233e+00
206.000      2.52106e+00
207.000      2.38576e+00
208.000      2.27664e+00
209.000      2.18786e+00
210.000      2.10885e+00
211.000      2.02652e+00
212.000      1.92806e+00
213.000      1.80360e+00
214.000      1.64825e+00
215.000      1.46331e+00
216.000      1.25599e+00
217.000      1.03805e+00
218.000      8.23291e-01
219.000      6.24846e-01
220.000      4.52763e-01
221.000      3.12627e-01
222.000      2.05388e-01
223.000      1.28229e-01
224.000      7.60031e-02
225.000      4.27344e-02
226.000      2.27803e-02
227.000      1.15072e-02
228.000      5.50619e-03
229.000      2.49502e-03
230.000      1.07039e-03
231.000      4.34690e-04
232.000      1.67082e-04
233.000      6.07781e-05
234.000      2.09217e-05
235.000      6.81481e-06
236.000      2.10037e-06
237.000      6.12502e-07
238.000      1.68996e-07
239.000      4.41160e-08
240.000      1.08957e-08
241.000      2.54595e-09
242.000      5.62830e-10
243.000      1.17715e-10
244.000      2.32924e-11
245.000      4.36064e-12
246.000      7.74527e-13
247.000      1.45131e-13
248.000      1.22548e-13
249.000      6.28804e-13
250.000      3.63084e-12
251.000      1.99284e-11
252.000      1.03498e-10
253.000      5.08557e-10
254.000      2.36425e-09
255.000      1.03991e-08
256.000      4.32757e-08
257.000      1.70389e-07
258.000      6.34726e-07
259.000      2.23709e-06
260.000      7.45989e-06
261.000      2.35363e-05
262.000      7.02592e-05
263.000      1.98443e-04
264.000      5.30328e-04
265.000      1.34105e-03
266.000      3.20889e-03
267.000      7.26621e-03
268.000      1.55721e-02
269.000      3.15897e-02
270.000      6.06732e-02
271.000      1.10370e-01
272.000      1.90252e-01
273.000      3.10994e-01
274.000      4.82602e-01
275.000      7.12071e-01
276.000      1.00121e+00
277.000      1.34572e+00
278.000      1.73633e+00
279.000      2.16214e+00
280.000      2.61494e+00
281.000      3.09221e+00
282.000      3.59652e+00
283.000      4.13019e+00
284.000      4.68675e+00
285.000      5.24306e+00
286.000      5.75701e+00
287.000      6.17424e+00
288.000      6.44390e+00
289.000      6.53881e+00
290.000      6.47285e+00
291.000      6.30838e+00
292.000      6.14946e+00
293.000      6.12170e+00
294.000      6.34418e+00
295.000      6.90138e+00
296.000      7.82276e+00
297.000      9.07490e+00
298.000      1.05670e+01
299.000      1.21667e+01
300.000      1.37216e+01
301.000      1.50807e+01
302.000      1.61129e+01
303.000      1.67217e+01
304.000      1.68559e+01
305.000      1.65170e+01
306.000      1.57634e+01
307.000      1.47081e+01
308.000      1.35073e+01
309.000      1.23402e+01
310.000      1.13797e+01
311.000      1.07611e+01
312.000      1.05551e+01
313.000      1.07526e+01
314.000      1.12666e+01
315.000      1.19508e+01
316.000      1.26334e+01
317.000      1.31575e+01
318.000      1.34201e+01
319.000      1.34011e+01
320.000      1.31745e+01
321.000      1.29004e+01
322.000      1.27978e+01
323.000      1.31040e+01
324.000      1.40290e+01
325.000      1.57144e+01
326.000      1.82034e+01
327.000      2.14271e+01
328.000      2.52095e+01
329.000      2.92888e+01
330.000      3.33522e+01
331.000      3.70794e+01
332.000      4.01852e+01
333.000      4.24564e+01
334.000      4.37742e+01
335.000      4.41202e+01
336.000      4.35660e+01
337.000      4.22531e+01
338.000      4.03675e+01
339.000      3.81158e+01
340.000      3.57042e+01
341.000      3.33222e+01
342.000      3.11303e+01
343.000      2.92528e+01
344.000      2.77751e+01
345.000      2.67475e+01
346.000      2.61904e+01
347.000      2.60990e+01
348.000      2.64436e+01
349.000      2.71658e+01
350.000      2.81729e+01
351.000      2.93367e+01
352.000      3.05010e+01
353.000      3.14990e+01
354.000      3.21769e+01
355.000      3.24170e+01
356.000      3.21532e+01
357.000      3.13753e+01
358.000      3.01221e+01
359.000      2.84671e+01
360.000      2.65021e+01
361.000      2.43230e+01
362.000      2.20209e+01
363.000      1.96776e+01
364.000      1.73651e+01
365.000      1.51470e+01
366.000      1.30790e+01
367.000      1.12094e+01
368.000      9.57640e+00
369.000      8.20592e+00
370.000      7.10938e+00
371.000      6.28326e+00
372.000      5.71111e+00
373.000      5.36758e+00
374.000      5.22342e+00
375.000      5.25045e+00
376.000      5.42571e+00
377.000      5.73469e+00
378.000      6.17387e+00
379.000      6.75184e+00
380.000      7.48805e+00
381.000      8.40723e+00
382.000      9.52914e+00
383.000      1.08551e+01
384.000      1.23557e+01
385.000      1.39665e+01
386.000      1.55943e+01
387.000      1.71359e+01
388.000      1.85016e+01
389.000      1.96364e+01
390.000      2.05280e+01
391.000      2.11982e+01
392.000      2.16830e+01
393.000      2.20071e+01
394.000      2.21663e+01
395.000      2.21231e+01
396.000      2.18169e+01
397.000      2.11852e+01
398.000      2.01862e+01
399.000      1.88166e+01
400.000      1.71198e+01
401.000      1.51821e+01
402.000      1.31204e+01
403.000      1.10632e+01
404.000      9.13020e+00
405.000      7.41509e+00
406.000      5.97463e+00
407.000      4.82625e+00
408.000      3.95376e+00
409.000      3.31888e+00
410.000      2.87458e+00
411.000      2.57645e+00
412.000      2.38930e+00
413.000      2.28842e+00
414.000      2.25641e+00
415.000      2.27824e+00
416.000      2.33708e+00
417.000      2.41268e+00
418.000      2.48270e+00
419.000      2.52597e+00
420.000      2.52606e+00
421.000      2.47358e+00
422.000      2.36652e+00
423.000      2.20916e+00
424.000      2.01029e+00
425.000      1.78180e+00
426.000      1.53779e+00
427.000      1.29414e+00
428.000      1.06775e+00
429.000      8.75276e-01
430.000      7.31012e-01
431.000      6.44609e-01
432.000      6.18928e-01
433.000      6.48759e-01
434.000      7.20801e-01
435.000      8.15222e-01
436.000      9.08741e-01
437.000      9.78777e-01
438.000      1.00779e+00
439.000      9.86653e-01
440.000      9.16068e-01
441.000      8.05585e-01
442.000      6.70584e-01
443.000      5.28235e-01
444.000      3.93707e-01
445.000      2.77628e-01
446.000      1.85218e-01
447.000      1.16904e-01
448.000      6.98060e-02
449.000      3.94345e-02
450.000      2.10755e-02
451.000      1.06561e-02
452.000      5.09723e-03
453.000      2.30669e-03
454.000      9.87557e-04
455.000      3.99993e-04
456.000      1.53271e-04
457.000      5.55630e-05
458.000      1.90559e-05
459.000      6.18286e-06
460.000      1.89788e-06
461.000      5.51142e-07
462.000      1.51418e-07
463.000      3.93557e-08
464.000      9.67736e-09
465.000      2.25125e-09
466.000      4.95458e-10
467.000      1.03159e-10
468.000      2.03202e-11
469.000      3.78673e-12
470.000      6.67603e-13
471.000      1.11350e-13
472.000      1.75703e-14
473.000      2.62293e-15
474.000      3.70434e-16
475.000      4.94941e-17
476.000      6.25624e-18
477.000      7.48154e-19
478.000      8.46420e-20
479.000      9.05938e-21
480.000      9.17337e-22
481.000      8.78773e-23
482.000      7.96420e-24
483.000      6.82850e-25
484.000      5.53893e-26
485.000      4.25054e-27
486.000      3.08589e-28
487.000      2.11950e-29
488.000      1.37722e-30
489.000      8.46629e-32
490.000      4.92379e-33
491.000      2.70909e-34
492.000      1.41015e-35
493.000      6.94423e-37
494.000      3.23520e-38
495.000      1.42592e-39
496.000      5.94575e-41
497.000      2.34550e-42
498.000      8.75353e-44
499.000      3.09064e-45
500.000      1.03236e-46
