# Gaussian folded, width=10 cm^-1
# [cm^-1] arbitrary
0.000      3.00000e+00
1.000      2.91796e+00
2.000      2.68508e+00
3.000      2.33749e+00
4.000      1.92514e+00
5.000      1.50000e+00
6.000      1.10570e+00
7.000      7.71085e-01
8.000      5.08727e-01
9.000      3.17529e-01
10.000      1.87500e-01
11.000      1.04746e-01
12.000      5.53590e-02
13.000      2.76795e-02
14.000      1.30933e-02
15.000      5.85984e-03
16.000      2.48239e-03
17.000      9.99472e-04
18.000      3.95749e-04
19.000      1.94764e-04
20.000      2.21749e-04
21.000      5.05284e-04
22.000      1.30017e-03
23.000      3.24347e-03
24.000      7.68733e-03
25.000      1.72708e-02
26.000      3.67752e-02
27.000      7.42249e-02
28.000      1.42023e-01
29.000      2.57665e-01
30.000      4.43321e-01
31.000      7.23488e-01
32.000      1.12018e+00
33.000      1.64583e+00
34.000      2.29524e+00
35.000      3.03897e+00
36.000      3.82112e+00
37.000      4.56389e+00
38.000      5.17934e+00
39.000      5.58623e+00
40.000      5.72761e+00
41.000      5.58388e+00
42.000      5.17714e+00
43.000      4.56569e+00
44.000      3.83035e+00
45.000      3.05718e+00
46.000      2.32150e+00
47.000      1.67717e+00
48.000      1.15277e+00
49.000      7.53888e-01
50.000      4.69473e-01
51.000      2.79420e-01
52.000      1.61456e-01
53.000      9.61428e-02
54.000      6.98692e-02
55.000      7.62844e-02
56.000      1.16729e-01
57.000      2.00007e-01
58.000      3.41422e-01
59.000      5.60685e-01
60.000      8.78210e-01
61.000      1.30964e+00
62.000      1.85919e+00
63.000      2.51314e+00
64.000      3.23574e+00
65.000      3.96945e+00
66.000      4.64098e+00
67.000      5.17262e+00
68.000      5.49677e+00
69.000      5.56986e+00
70.000      5.38190e+00
71.000      4.95870e+00
72.000      4.35632e+00
73.000      3.64920e+00
74.000      2.91584e+00
75.000      2.22568e+00
76.000      1.63067e+00
77.000      1.16254e+00
78.000      8.35511e-01
79.000      6.52130e-01
80.000      6.09684e-01
81.000      7.04807e-01
82.000      9.34854e-01
83.000      1.29590e+00
84.000      1.77832e+00
85.000      2.36183e+00
86.000      3.01203e+00
87.000      3.68010e+00
88.000      4.30670e+00
89.000      4.82956e+00
90.000      5.19362e+00
91.000      5.36150e+00
92.000      5.32217e+00
93.000      5.09566e+00
94.000      4.73272e+00
95.000      4.30898e+00
96.000      3.91442e+00
97.000      3.64005e+00
98.000      3.56399e+00
99.000      3.73955e+00
100.000      4.18740e+00
101.000      4.89301e+00
102.000      5.80974e+00
103.000      6.86700e+00
104.000      7.98208e+00
105.000      9.07356e+00
106.000      1.00738e+01
107.000      1.09377e+01
108.000      1.16460e+01
109.000      1.22018e+01
110.000      1.26215e+01
111.000      1.29235e+01
112.000      1.31171e+01
113.000      1.31971e+01
114.000      1.31445e+01
115.000      1.29324e+01
116.000      1.25366e+01
117.000      1.19457e+01
118.000      1.11685e+01
119.000      1.02372e+01
120.000      9.20651e+00
121.000      8.14849e+00
122.000      7.14616e+00
123.000      6.28523e+00
124.000      5.64538e+00
125.000      5.29145e+00
126.000      5.26514e+00
127.000      5.57873e+00
128.000      6.21211e+00
129.000      7.11456e+00
130.000      8.21152e+00
131.000      9.41556e+00
132.000      1.06391e+01
133.000      1.18057e+01
134.000      1.28576e+01
135.000      1.37569e+01
136.000      1.44820e+01
137.000      1.50217e+01
138.000      1.53698e+01
139.000      1.55229e+01
140.000      1.54824e+01
141.000      1.52594e+01
142.000      1.48782e+01
143.000      1.43774e+01
144.000      1.38064e+01
145.000      1.32186e+01
146.000      1.26618e+01
147.000      1.21696e+01
148.000      1.17560e+01
149.000      1.14131e+01
150.000      1.11164e+01
151.000      1.08330e+01
152.000      1.05346e+01
153.000      1.02092e+01
154.000      9.86922e+00
155.000      9.55191e+00
156.000      9.31144e+00
157.000      9.20428e+00
158.000      9.27192e+00
159.000      9.52619e+00
160.000      9.94156e+00
161.000      1.04567e+01
162.000      1.09849e+01
163.000      1.14294e+01
164.000      1.17017e+01
165.000      1.17351e+01
166.000      1.14952e+01
167.000      1.09820e+01
168.000      1.02270e+01
169.000      9.28469e+00
170.000      8.22266e+00
171.000      7.11106e+00
172.000      6.01509e+00
173.000      4.99044e+00
174.000      4.08201e+00
175.000      3.32436e+00
176.000      2.74252e+00
177.000      2.35205e+00
178.000      2.15849e+00
179.000      2.15646e+00
180.000      2.32959e+00
181.000      2.65151e+00
182.000      3.08774e+00
183.000      3.59809e+00
184.000      4.13897e+00
185.000      4.66540e+00
186.000      5.13323e+00
187.000      5.50205e+00
188.000      5.73911e+00
189.000      5.82395e+00
190.000      5.75273e+00
191.000      5.54052e+00
192.000      5.22039e+00
193.000      4.83863e+00
194.000      4.44708e+00
195.000      4.09412e+00
196.000      3.81673e+00
197.000      3.63547e+00
198.000      3.55304e+00
199.000      3.55656e+00
200.000      3.62220e+00
201.000      3.72086e+00
202.000      3.82335e+00
203.000      3.90379e+00
204.000      3.94122e+00
205.000      3.91959e+00
206.000      3.82725e+00
207.000      3.65701e+00
208.000      3.40728e+00
209.000      3.08375e+00
210.000      2.70061e+00
211.000      2.28005e+00
212.000      1.84951e+00
213.000      1.43719e+00
214.000      1.06717e+00
215.000      7.55662e-01
216.000      5.09419e-01
217.000      3.26518e-01
218.000      1.98780e-01
219.000      1.14848e-01
220.000      6.29332e-02
221.000      3.26912e-02
222.000      1.60920e-02
223.000      7.50387e-03
224.000      3.31402e-03
225.000      1.38593e-03
226.000      5.48752e-04
227.000      2.05691e-04
228.000      7.29822e-05
229.000      2.45104e-05
230.000      7.79095e-06
231.000      2.34379e-06
232.000      6.67293e-07
233.000      1.79793e-07
234.000      4.58435e-08
235.000      1.10617e-08
236.000      2.52578e-09
237.000      5.45754e-10
238.000      1.11588e-10
239.000      2.15903e-11
240.000      3.95285e-12
241.000      6.84813e-13
242.000      1.12265e-13
243.000      1.74185e-14
244.000      2.58703e-15
245.000      5.93191e-16
246.000      1.78649e-15
247.000      1.20305e-14
248.000      7.86265e-14
249.000      4.86383e-13
250.000      2.84652e-12
251.000      1.57606e-11
252.000      8.25572e-11
253.000      4.09129e-10
254.000      1.91818e-09
255.000      8.50829e-09
256.000      3.57043e-08
257.000      1.41750e-07
258.000      5.32419e-07
259.000      1.89196e-06
260.000      6.36068e-06
261.000      2.02316e-05
262.000      6.08830e-05
263.000      1.73345e-04
264.000      4.66969e-04
265.000      1.19026e-03
266.000      2.87076e-03
267.000      6.55222e-03
268.000      1.41537e-02
269.000      2.89409e-02
270.000      5.60306e-02
271.000      1.02747e-01
272.000      1.78553e-01
273.000      2.94273e-01
274.000      4.60464e-01
275.000      6.85133e-01
276.000      9.71481e-01
277.000      1.31665e+00
278.000      1.71237e+00
279.000      2.14775e+00
280.000      2.61316e+00
281.000      3.10326e+00
282.000      3.61695e+00
283.000      4.15313e+00
284.000      4.70329e+00
285.000      5.24459e+00
286.000      5.73757e+00
287.000      6.13213e+00
288.000      6.38160e+00
289.000      6.46140e+00
290.000      6.38562e+00
291.000      6.21491e+00
292.000      6.05148e+00
293.000      6.02121e+00
294.000      6.24710e+00
295.000      6.82078e+00
296.000      7.77956e+00
297.000      9.09443e+00
298.000      1.06717e+01
299.000      1.23673e+01
300.000      1.40102e+01
301.000      1.54293e+01
302.000      1.64786e+01
303.000      1.70570e+01
304.000      1.71209e+01
305.000      1.66887e+01
306.000      1.58389e+01
307.000      1.47014e+01
308.000      1.34413e+01
309.000      1.22371e+01
310.000      1.12539e+01
311.000      1.06162e+01
312.000      1.03859e+01
313.000      1.05509e+01
314.000      1.10276e+01
315.000      1.16786e+01
316.000      1.23421e+01
317.000      1.28683e+01
318.000      1.31551e+01
319.000      1.31771e+01
320.000      1.29997e+01
321.000      1.27751e+01
322.000      1.27193e+01
323.000      1.30730e+01
324.000      1.40551e+01
325.000      1.58165e+01
326.000      1.84051e+01
327.000      2.17482e+01
328.000      2.56557e+01
329.000      2.98443e+01
330.000      3.39775e+01
331.000      3.77149e+01
332.000      4.07607e+01
333.000      4.29027e+01
334.000      4.40350e+01
335.000      4.41613e+01
336.000      4.33803e+01
337.000      4.18610e+01
338.000      3.98130e+01
339.000      3.74594e+01
340.000      3.50142e+01
341.000      3.26660e+01
342.000      3.05678e+01
343.000      2.88305e+01
344.000      2.75232e+01
345.000      2.66762e+01
346.000      2.62874e+01
347.000      2.63288e+01
348.000      2.67501e+01
349.000      2.74804e+01
350.000      2.84279e+01
351.000      2.94813e+01
352.000      3.05156e+01
353.000      3.14031e+01
354.000      3.20276e+01
355.000      3.22978e+01
356.000      3.21556e+01
357.000      3.15776e+01
358.000      3.05698e+01
359.000      2.91603e+01
360.000      2.73918e+01
361.000      2.53175e+01
362.000      2.30010e+01
363.000      2.05167e+01
364.000      1.79508e+01
365.000      1.53982e+01
366.000      1.29567e+01
367.000      1.07174e+01
368.000      8.75570e+00
369.000      7.12385e+00
370.000      5.84826e+00
371.000      4.93091e+00
372.000      4.35460e+00
373.000      4.08952e+00
374.000      4.09941e+00
375.000      4.34602e+00
376.000      4.79234e+00
377.000      5.40546e+00
378.000      6.15987e+00
379.000      7.04099e+00
380.000      8.04677e+00
381.000      9.18493e+00
382.000      1.04642e+01
383.000      1.18811e+01
384.000      1.34065e+01
385.000      1.49793e+01
386.000      1.65121e+01
387.000      1.79086e+01
388.000      1.90890e+01
389.000      2.00110e+01
390.000      2.06782e+01
391.000      2.11314e+01
392.000      2.14250e+01
393.000      2.15991e+01
394.000      2.16592e+01
395.000      2.15704e+01
396.000      2.12691e+01
397.000      2.06853e+01
398.000      1.97673e+01
399.000      1.85012e+01
400.000      1.69180e+01
401.000      1.50909e+01
402.000      1.31230e+01
403.000      1.11305e+01
404.000      9.22645e+00
405.000      7.50584e+00
406.000      6.03663e+00
407.000      4.85506e+00
408.000      3.96591e+00
409.000      3.34633e+00
410.000      2.95213e+00
411.000      2.72570e+00
412.000      2.60513e+00
413.000      2.53361e+00
414.000      2.46803e+00
415.000      2.38476e+00
416.000      2.28086e+00
417.000      2.16994e+00
418.000      2.07373e+00
419.000      2.01176e+00
420.000      1.99273e+00
421.000      2.01018e+00
422.000      2.04380e+00
423.000      2.06557e+00
424.000      2.04842e+00
425.000      1.97439e+00
426.000      1.83993e+00
427.000      1.65673e+00
428.000      1.44843e+00
429.000      1.24446e+00
430.000      1.07276e+00
431.000      9.53418e-01
432.000      8.94554e-01
433.000      8.91103e-01
434.000      9.26637e-01
435.000      9.77605e-01
436.000      1.01897e+00
437.000      1.02989e+00
438.000      9.98030e-01
439.000      9.21461e-01
440.000      8.07839e-01
441.000      6.71304e-01
442.000      5.28275e-01
443.000      3.93496e-01
444.000      2.77366e-01
445.000      1.84988e-01
446.000      1.16730e-01
447.000      6.96875e-02
448.000      3.93599e-02
449.000      2.10317e-02
450.000      1.06320e-02
451.000      5.08480e-03
452.000      2.30065e-03
453.000      9.84796e-04
454.000      3.98804e-04
455.000      1.52788e-04
456.000      5.53782e-05
457.000      1.89891e-05
458.000      6.16011e-06
459.000      1.89056e-06
460.000      5.48919e-07
461.000      1.50780e-07
462.000      3.91831e-08
463.000      9.63320e-09
464.000      2.24058e-09
465.000      4.93023e-10
466.000      1.02634e-10
467.000      2.02131e-11
468.000      3.76611e-12
469.000      6.63851e-13
470.000      1.10704e-13
471.000      1.74654e-14
472.000      2.60680e-15
473.000      3.68091e-16
474.000      4.91723e-17
475.000      6.21446e-18
476.000      7.43026e-19
477.000      8.40470e-20
478.000      8.99410e-21
479.000      9.10565e-22
480.000      8.72132e-23
481.000      7.90261e-24
482.000      6.77449e-25
483.000      5.49415e-26
484.000      4.21543e-27
485.000      3.05985e-28
486.000      2.10125e-29
487.000      1.36512e-30
488.000      8.39040e-32
489.000      4.87879e-33
490.000      2.68385e-34
491.000      1.39677e-35
492.000      6.87710e-37
493.000      3.20336e-38
494.000      1.41164e-39
495.000      5.88515e-41
496.000      2.32119e-42
497.000      8.66124e-44
498.000      3.05751e-45
499.000      1.02111e-46
500.000      3.22623e-48
