# Gaussian folded, width=10 cm^-1
# [cm^-1] arbitrary
0.000      3.00000e+00
1.000      2.91796e+00
2.000      2.68508e+00
3.000      2.33749e+00
4.000      1.92514e+00
5.000      1.50000e+00
6.000      1.10570e+00
7.000      7.71085e-01
8.000      5.08727e-01
9.000      3.17529e-01
10.000      1.87500e-01
11.000      1.04746e-01
12.000      5.53592e-02
13.000      2.76802e-02
14.000      1.30957e-02
15.000      5.86778e-03
16.000      2.50776e-03
17.000      1.07614e-03
18.000      6.14982e-04
19.000      7.87922e-04
20.000      1.74007e-03
21.000      4.18170e-03
22.000      9.71949e-03
23.000      2.14749e-02
24.000      4.50062e-02
25.000      8.94532e-02
26.000      1.68636e-01
27.000      3.01574e-01
28.000      5.11675e-01
29.000      8.23782e-01
30.000      1.25867e+00
31.000      1.82537e+00
32.000      2.51298e+00
33.000      3.28457e+00
34.000      4.07632e+00
35.000      4.80399e+00
36.000      5.37673e+00
37.000      5.71540e+00
38.000      5.77046e+00
39.000      5.53383e+00
40.000      5.04080e+00
41.000      4.36148e+00
42.000      3.58446e+00
43.000      2.79811e+00
44.000      2.07483e+00
45.000      1.46188e+00
46.000      9.79996e-01
47.000      6.28117e-01
48.000      3.91614e-01
49.000      2.51046e-01
50.000      1.89413e-01
51.000      1.96924e-01
52.000      2.73062e-01
53.000      4.26155e-01
54.000      6.70636e-01
55.000      1.02221e+00
56.000      1.49135e+00
57.000      2.07615e+00
58.000      2.75599e+00
59.000      3.48831e+00
60.000      4.21019e+00
61.000      4.84568e+00
62.000      5.31823e+00
63.000      5.56542e+00
64.000      5.55237e+00
65.000      5.27977e+00
66.000      4.78417e+00
67.000      4.13028e+00
68.000      3.39769e+00
69.000      2.66596e+00
70.000      2.00225e+00
71.000      1.45440e+00
72.000      1.05034e+00
73.000      8.02215e-01
74.000      7.12780e-01
75.000      7.80841e-01
76.000      1.00364e+00
77.000      1.37536e+00
78.000      1.88261e+00
79.000      2.49912e+00
80.000      3.18240e+00
81.000      3.87471e+00
82.000      4.50945e+00
83.000      5.02211e+00
84.000      5.36342e+00
85.000      5.51105e+00
86.000      5.47685e+00
87.000      5.30736e+00
88.000      5.07714e+00
89.000      4.87619e+00
90.000      4.79397e+00
91.000      4.90325e+00
92.000      5.24732e+00
93.000      5.83341e+00
94.000      6.63361e+00
95.000      7.59288e+00
96.000      8.64132e+00
97.000      9.70731e+00
98.000      1.07278e+01
99.000      1.16538e+01
100.000      1.24515e+01
101.000      1.30997e+01
102.000      1.35862e+01
103.000      1.39046e+01
104.000      1.40507e+01
105.000      1.40208e+01
106.000      1.38111e+01
107.000      1.34182e+01
108.000      1.28431e+01
109.000      1.20967e+01
110.000      1.12061e+01
111.000      1.02186e+01
112.000      9.20083e+00
113.000      8.23274e+00
114.000      7.39696e+00
115.000      6.76700e+00
116.000      6.39762e+00
117.000      6.31977e+00
118.000      6.54040e+00
119.000      7.04552e+00
120.000      7.80427e+00
121.000      8.77209e+00
122.000      9.89292e+00
123.000      1.11011e+01
124.000      1.23246e+01
125.000      1.34898e+01
126.000      1.45284e+01
127.000      1.53840e+01
128.000      1.60176e+01
129.000      1.64116e+01
130.000      1.65701e+01
131.000      1.65173e+01
132.000      1.62932e+01
133.000      1.59471e+01
134.000      1.55305e+01
135.000      1.50891e+01
136.000      1.46573e+01
137.000      1.42556e+01
138.000      1.38910e+01
139.000      1.35606e+01
140.000      1.32558e+01
141.000      1.29664e+01
142.000      1.26829e+01
143.000      1.23973e+01
144.000      1.21036e+01
145.000      1.17977e+01
146.000      1.14782e+01
147.000      1.11466e+01
148.000      1.08083e+01
149.000      1.04725e+01
150.000      1.01511e+01
151.000      9.85610e+00
152.000      9.59663e+00
153.000      9.37497e+00
154.000      9.18377e+00
155.000      9.00541e+00
156.000      8.81464e+00
157.000      8.58456e+00
158.000      8.29434e+00
159.000      7.93645e+00
160.000      7.52055e+00
161.000      7.07252e+00
162.000      6.62860e+00
163.000      6.22650e+00
164.000      5.89629e+00
165.000      5.65364e+00
166.000      5.49712e+00
167.000      5.40966e+00
168.000      5.36323e+00
169.000      5.32551e+00
170.000      5.26678e+00
171.000      5.16609e+00
172.000      5.01537e+00
173.000      4.82086e+00
174.000      4.60119e+00
175.000      4.38258e+00
176.000      4.19234e+00
177.000      4.05240e+00
178.000      3.97500e+00
179.000      3.96145e+00
180.000      4.00414e+00
181.000      4.09048e+00
182.000      4.20718e+00
183.000      4.34330e+00
184.000      4.49111e+00
185.000      4.64513e+00
186.000      4.80014e+00
187.000      4.94972e+00
188.000      5.08644e+00
189.000      5.20393e+00
190.000      5.30004e+00
191.000      5.37950e+00
192.000      5.45423e+00
193.000      5.54039e+00
194.000      5.65275e+00
195.000      5.79823e+00
196.000      5.97132e+00
197.000      6.15355e+00
198.000      6.31778e+00
199.000      6.43611e+00
200.000      6.48915e+00
201.000      6.47345e+00
202.000      6.40477e+00
203.000      6.31593e+00
204.000      6.24992e+00
205.000      6.25002e+00
206.000      6.34957e+00
207.000      6.56416e+00
208.000      6.88773e+00
209.000      7.29347e+00
210.000      7.73880e+00
211.000      8.17314e+00
212.000      8.54661e+00
213.000      8.81837e+00
214.000      8.96324e+00
215.000      8.97588e+00
216.000      8.87187e+00
217.000      8.68524e+00
218.000      8.46247e+00
219.000      8.25351e+00
220.000      8.10182e+00
221.000      8.03579e+00
222.000      8.06441e+00
223.000      8.17838e+00
224.000      8.35620e+00
225.000      8.57260e+00
226.000      8.80594e+00
227.000      9.04189e+00
228.000      9.27264e+00
229.000      9.49306e+00
230.000      9.69656e+00
231.000      9.87283e+00
232.000      1.00088e+01
233.000      1.00919e+01
234.000      1.01143e+01
235.000      1.00756e+01
236.000      9.98278e+00
237.000      9.84788e+00
238.000      9.68268e+00
239.000      9.49378e+00
240.000      9.27945e+00
241.000      9.03030e+00
242.000      8.73405e+00
243.000      8.38313e+00
244.000      7.98210e+00
245.000      7.55141e+00
246.000      7.12514e+00
247.000      6.74287e+00
248.000      6.43833e+00
249.000      6.22916e+00
250.000      6.11179e+00
251.000      6.06307e+00
252.000      6.04762e+00
253.000      6.02747e+00
254.000      5.97029e+00
255.000      5.85383e+00
256.000      5.66616e+00
257.000      5.40340e+00
258.000      5.06708e+00
259.000      4.66275e+00
260.000      4.20043e+00
261.000      3.69593e+00
262.000      3.17185e+00
263.000      2.65700e+00
264.000      2.18398e+00
265.000      1.78512e+00
266.000      1.48759e+00
267.000      1.30871e+00
268.000      1.25220e+00
269.000      1.30626e+00
270.000      1.44386e+00
271.000      1.62589e+00
272.000      1.80702e+00
273.000      1.94355e+00
274.000      2.00172e+00
275.000      1.96423e+00
276.000      1.83333e+00
277.000      1.62959e+00
278.000      1.38680e+00
279.000      1.14504e+00
280.000      9.43880e-01
281.000      8.17309e-01
282.000      7.90957e-01
283.000      8.80950e-01
284.000      1.09341e+00
285.000      1.42385e+00
286.000      1.85663e+00
287.000      2.36515e+00
288.000      2.91393e+00
289.000      3.46310e+00
290.000      3.97464e+00
291.000      4.41907e+00
292.000      4.78055e+00
293.000      5.05899e+00
294.000      5.26866e+00
295.000      5.43376e+00
296.000      5.58254e+00
297.000      5.74127e+00
298.000      5.92943e+00
299.000      6.15685e+00
300.000      6.42333e+00
301.000      6.72064e+00
302.000      7.03639e+00
303.000      7.35864e+00
304.000      7.67972e+00
305.000      7.99786e+00
306.000      8.31611e+00
307.000      8.63919e+00
308.000      8.96965e+00
309.000      9.30541e+00
310.000      9.63986e+00
311.000      9.96454e+00
312.000      1.02734e+01
313.000      1.05673e+01
314.000      1.08555e+01
315.000      1.11558e+01
316.000      1.14899e+01
317.000      1.18788e+01
318.000      1.23377e+01
319.000      1.28739e+01
320.000      1.34888e+01
321.000      1.41824e+01
322.000      1.49596e+01
323.000      1.58339e+01
324.000      1.68271e+01
325.000      1.79633e+01
326.000      1.92579e+01
327.000      2.07058e+01
328.000      2.22716e+01
329.000      2.38876e+01
330.000      2.54597e+01
331.000      2.68818e+01
332.000      2.80559e+01
333.000      2.89111e+01
334.000      2.94186e+01
335.000      2.95965e+01
336.000      2.95049e+01
337.000      2.92326e+01
338.000      2.88786e+01
339.000      2.85345e+01
340.000      2.82705e+01
341.000      2.81284e+01
342.000      2.81217e+01
343.000      2.82398e+01
344.000      2.84549e+01
345.000      2.87284e+01
346.000      2.90145e+01
347.000      2.92629e+01
348.000      2.94212e+01
349.000      2.94372e+01
350.000      2.92641e+01
351.000      2.88651e+01
352.000      2.82177e+01
353.000      2.73158e+01
354.000      2.61686e+01
355.000      2.47975e+01
356.000      2.32336e+01
357.000      2.15155e+01
358.000      1.96903e+01
359.000      1.78147e+01
360.000      1.59550e+01
361.000      1.41833e+01
362.000      1.25694e+01
363.000      1.11697e+01
364.000      1.00167e+01
365.000      9.11211e+00
366.000      8.42855e+00
367.000      7.91726e+00
368.000      7.52149e+00
369.000      7.19009e+00
370.000      6.88740e+00
371.000      6.59719e+00
372.000      6.32071e+00
373.000      6.07112e+00
374.000      5.86745e+00
375.000      5.73032e+00
376.000      5.68020e+00
377.000      5.73756e+00
378.000      5.92322e+00
379.000      6.25724e+00
380.000      6.75588e+00
381.000      7.42714e+00
382.000      8.26651e+00
383.000      9.25458e+00
384.000      1.03573e+01
385.000      1.15287e+01
386.000      1.27140e+01
387.000      1.38531e+01
388.000      1.48820e+01
389.000      1.57343e+01
390.000      1.63448e+01
391.000      1.66544e+01
392.000      1.66190e+01
393.000      1.62180e+01
394.000      1.54619e+01
395.000      1.43938e+01
396.000      1.30858e+01
397.000      1.16292e+01
398.000      1.01220e+01
399.000      8.65594e+00
400.000      7.30661e+00
401.000      6.12665e+00
402.000      5.14368e+00
403.000      4.36181e+00
404.000      3.76588e+00
405.000      3.32740e+00
406.000      3.01097e+00
407.000      2.78010e+00
408.000      2.60171e+00
409.000      2.44888e+00
410.000      2.30205e+00
411.000      2.14920e+00
412.000      1.98568e+00
413.000      1.81363e+00
414.000      1.64109e+00
415.000      1.48011e+00
416.000      1.34371e+00
417.000      1.24206e+00
418.000      1.17888e+00
419.000      1.14933e+00
420.000      1.14039e+00
421.000      1.13389e+00
422.000      1.11141e+00
423.000      1.05922e+00
424.000      9.71771e-01
425.000      8.52524e-01
426.000      7.12167e-01
427.000      5.65018e-01
428.000      4.25077e-01
429.000      3.02962e-01
430.000      2.04448e-01
431.000      1.30589e-01
432.000      7.89360e-02
433.000      4.51476e-02
434.000      2.44318e-02
435.000      1.25090e-02
436.000      6.05926e-03
437.000      2.77681e-03
438.000      1.20391e-03
439.000      4.93815e-04
440.000      1.91626e-04
441.000      7.03496e-05
442.000      2.44336e-05
443.000      8.02846e-06
444.000      2.49571e-06
445.000      7.33963e-07
446.000      2.04208e-07
447.000      5.37511e-08
448.000      1.33851e-08
449.000      3.15334e-09
450.000      7.02812e-10
451.000      1.48192e-10
452.000      2.95616e-11
453.000      5.57891e-12
454.000      9.96065e-13
455.000      1.68246e-13
456.000      2.68855e-14
457.000      4.06452e-15
458.000      5.81324e-16
459.000      7.86583e-17
460.000      1.00691e-17
461.000      1.21941e-18
462.000      1.39711e-19
463.000      1.51435e-20
464.000      1.55289e-21
465.000      1.50652e-22
466.000      1.38269e-23
467.000      1.20058e-24
468.000      9.86224e-26
469.000      7.66440e-27
470.000      5.63506e-28
471.000      3.91955e-29
472.000      2.57924e-30
473.000      1.60570e-31
474.000      9.45704e-33
475.000      5.26943e-34
476.000      2.77773e-35
477.000      1.38526e-36
478.000      6.53572e-38
479.000      2.91724e-39
480.000      1.23188e-40
481.000      4.92133e-42
482.000      1.86000e-43
483.000      6.65063e-45
484.000      2.24972e-46
485.000      7.19968e-48
486.000      2.17979e-49
487.000      6.24359e-51
488.000      1.69189e-52
489.000      4.33737e-54
490.000      1.05196e-55
491.000      2.41373e-57
492.000      5.23957e-59
493.000      1.07602e-60
494.000      2.09056e-62
495.000      3.84258e-64
496.000      6.68192e-66
497.000      1.09925e-67
498.000      1.71084e-69
499.000      2.51907e-71
500.000      3.50904e-73
