# Gaussian folded, width=10 cm^-1
# [cm^-1] arbitrary
0.000      3.00000e+00
1.000      2.91796e+00
2.000      2.68508e+00
3.000      2.33749e+00
4.000      1.92514e+00
5.000      1.50000e+00
6.000      1.10570e+00
7.000      7.71085e-01
8.000      5.08727e-01
9.000      3.17529e-01
10.000      1.87500e-01
11.000      1.04746e-01
12.000      5.53590e-02
13.000      2.76795e-02
14.000      1.30933e-02
15.000      5.85973e-03
16.000      2.48203e-03
17.000      9.98290e-04
18.000      3.92116e-04
19.000      1.84237e-04
20.000      1.93001e-04
21.000      4.31351e-04
22.000      1.12124e-03
23.000      2.83634e-03
24.000      6.81746e-03
25.000      1.55283e-02
26.000      3.35091e-02
27.000      6.85125e-02
28.000      1.32735e-01
29.000      2.43704e-01
30.000      4.24083e-01
31.000      6.99526e-01
32.000      1.09390e+00
33.000      1.62193e+00
34.000      2.28049e+00
35.000      3.04106e+00
36.000      3.84667e+00
37.000      4.61603e+00
38.000      5.25577e+00
39.000      5.67862e+00
40.000      5.82296e+00
41.000      5.66745e+00
42.000      5.23621e+00
43.000      4.59273e+00
44.000      3.82452e+00
45.000      3.02383e+00
46.000      2.27000e+00
47.000      1.61804e+00
48.000      1.09512e+00
49.000      7.03874e-01
50.000      4.29933e-01
51.000      2.50381e-01
52.000      1.41058e-01
53.000      8.15255e-02
54.000      5.78031e-02
55.000      6.35124e-02
56.000      1.00181e-01
57.000      1.77098e-01
58.000      3.10603e-01
59.000      5.22262e-01
60.000      8.35206e-01
61.000      1.26828e+00
62.000      1.82846e+00
63.000      2.50317e+00
64.000      3.25500e+00
65.000      4.02169e+00
66.000      4.72292e+00
67.000      5.27364e+00
68.000      5.60096e+00
69.000      5.66009e+00
70.000      5.44435e+00
71.000      4.98634e+00
72.000      4.34998e+00
73.000      3.61623e+00
74.000      2.86695e+00
75.000      2.17150e+00
76.000      1.57907e+00
77.000      1.11758e+00
78.000      7.97834e-01
79.000      6.20553e-01
80.000      5.83245e-01
81.000      6.84757e-01
82.000      9.26044e-01
83.000      1.30705e+00
84.000      1.82079e+00
85.000      2.44670e+00
86.000      3.14596e+00
87.000      3.86113e+00
88.000      4.52150e+00
89.000      5.05362e+00
90.000      5.39509e+00
91.000      5.50784e+00
92.000      5.38771e+00
93.000      5.06767e+00
94.000      4.61405e+00
95.000      4.11692e+00
96.000      3.67662e+00
97.000      3.38922e+00
98.000      3.33299e+00
99.000      3.55741e+00
100.000      4.07612e+00
101.000      4.86469e+00
102.000      5.86416e+00
103.000      6.99059e+00
104.000      8.14955e+00
105.000      9.25320e+00
106.000      1.02356e+01
107.000      1.10626e+01
108.000      1.17320e+01
109.000      1.22648e+01
110.000      1.26898e+01
111.000      1.30264e+01
112.000      1.32723e+01
113.000      1.33998e+01
114.000      1.33634e+01
115.000      1.31144e+01
116.000      1.26193e+01
117.000      1.18745e+01
118.000      1.09144e+01
119.000      9.80876e+00
120.000      8.65297e+00
121.000      7.55204e+00
122.000      6.60457e+00
123.000      5.88962e+00
124.000      5.45879e+00
125.000      5.33402e+00
126.000      5.50968e+00
127.000      5.95750e+00
128.000      6.63272e+00
129.000      7.48065e+00
130.000      8.44321e+00
131.000      9.46498e+00
132.000      1.04980e+01
133.000      1.15040e+01
134.000      1.24540e+01
135.000      1.33239e+01
136.000      1.40902e+01
137.000      1.47256e+01
138.000      1.52001e+01
139.000      1.54863e+01
140.000      1.55678e+01
141.000      1.54483e+01
142.000      1.51550e+01
143.000      1.47352e+01
144.000      1.42461e+01
145.000      1.37410e+01
146.000      1.32572e+01
147.000      1.28102e+01
148.000      1.23955e+01
149.000      1.19967e+01
150.000      1.15964e+01
151.000      1.11854e+01
152.000      1.07677e+01
153.000      1.03598e+01
154.000      9.98593e+00
155.000      9.67170e+00
156.000      9.43858e+00
157.000      9.29987e+00
158.000      9.25867e+00
159.000      9.30712e+00
160.000      9.42628e+00
161.000      9.58699e+00
162.000      9.75186e+00
163.000      9.87903e+00
164.000      9.92727e+00
165.000      9.86154e+00
166.000      9.65761e+00
167.000      9.30457e+00
168.000      8.80510e+00
169.000      8.17396e+00
170.000      7.43559e+00
171.000      6.62209e+00
172.000      5.77156e+00
173.000      4.92688e+00
174.000      4.13403e+00
175.000      3.43961e+00
176.000      2.88712e+00
177.000      2.51282e+00
178.000      2.34166e+00
179.000      2.38416e+00
180.000      2.63467e+00
181.000      3.07114e+00
182.000      3.65607e+00
183.000      4.33897e+00
184.000      5.06014e+00
185.000      5.75604e+00
186.000      6.36587e+00
187.000      6.83851e+00
188.000      7.13839e+00
189.000      7.24923e+00
190.000      7.17466e+00
191.000      6.93617e+00
192.000      6.56886e+00
193.000      6.11626e+00
194.000      5.62494e+00
195.000      5.13939e+00
196.000      4.69739e+00
197.000      4.32620e+00
198.000      4.03985e+00
199.000      3.83820e+00
200.000      3.70807e+00
201.000      3.62649e+00
202.000      3.56540e+00
203.000      3.49699e+00
204.000      3.39821e+00
205.000      3.25386e+00
206.000      3.05759e+00
207.000      2.81120e+00
208.000      2.52289e+00
209.000      2.20519e+00
210.000      1.87299e+00
211.000      1.54200e+00
212.000      1.22721e+00
213.000      9.41519e-01
214.000      6.94404e-01
215.000      4.91067e-01
216.000      3.32195e-01
217.000      2.14525e-01
218.000      1.32018e-01
219.000      7.73080e-02
220.000      4.30266e-02
221.000      2.27380e-02
222.000      1.14007e-02
223.000      5.42020e-03
224.000      2.44223e-03
225.000      1.04252e-03
226.000      4.21478e-04
227.000      1.61346e-04
228.000      5.84724e-05
229.000      2.00583e-05
230.000      6.51232e-06
231.000      2.00096e-06
232.000      5.81797e-07
233.000      1.60070e-07
234.000      4.16714e-08
235.000      1.02645e-08
236.000      2.39221e-09
237.000      5.27489e-10
238.000      1.10045e-10
239.000      2.17205e-11
240.000      4.05603e-12
241.000      7.16580e-13
242.000      1.19773e-13
243.000      1.89430e-14
244.000      2.86046e-15
245.000      6.10342e-16
246.000      1.58847e-15
247.000      1.06536e-14
248.000      6.98744e-14
249.000      4.33836e-13
250.000      2.54834e-12
251.000      1.41615e-11
252.000      7.44525e-11
253.000      3.70313e-10
254.000      1.74252e-09
255.000      7.75723e-09
256.000      3.26705e-08
257.000      1.30175e-07
258.000      4.90705e-07
259.000      1.75000e-06
260.000      5.90448e-06
261.000      1.88476e-05
262.000      5.69198e-05
263.000      1.62635e-04
264.000      4.39659e-04
265.000      1.12457e-03
266.000      2.72172e-03
267.000      6.23337e-03
268.000      1.35105e-02
269.000      2.77175e-02
270.000      5.38362e-02
271.000      9.90329e-02
272.000      1.72617e-01
273.000      2.85301e-01
274.000      4.47605e-01
275.000      6.67598e-01
276.000      9.48634e-01
277.000      1.28807e+00
278.000      1.67793e+00
279.000      2.10775e+00
280.000      2.56864e+00
281.000      3.05653e+00
282.000      3.57214e+00
283.000      4.11647e+00
284.000      4.68272e+00
285.000      5.24838e+00
286.000      5.77216e+00
287.000      6.19976e+00
288.000      6.47871e+00
289.000      6.57849e+00
290.000      6.50862e+00
291.000      6.32759e+00
292.000      6.13775e+00
293.000      6.06659e+00
294.000      6.23922e+00
295.000      6.74989e+00
296.000      7.63988e+00
297.000      8.88690e+00
298.000      1.04073e+01
299.000      1.20691e+01
300.000      1.37123e+01
301.000      1.51709e+01
302.000      1.62957e+01
303.000      1.69723e+01
304.000      1.71371e+01
305.000      1.67869e+01
306.000      1.59832e+01
307.000      1.48482e+01
308.000      1.35511e+01
309.000      1.22841e+01
310.000      1.12323e+01
311.000      1.05411e+01
312.000      1.02886e+01
313.000      1.04706e+01
314.000      1.10007e+01
315.000      1.17292e+01
316.000      1.24761e+01
317.000      1.30725e+01
318.000      1.34021e+01
319.000      1.34333e+01
320.000      1.32343e+01
321.000      1.29669e+01
322.000      1.28592e+01
323.000      1.31630e+01
324.000      1.41039e+01
325.000      1.58345e+01
326.000      1.84007e+01
327.000      2.17258e+01
328.000      2.56168e+01
329.000      2.97909e+01
330.000      3.39163e+01
331.000      3.76604e+01
332.000      4.07351e+01
333.000      4.29318e+01
334.000      4.41392e+01
335.000      4.43459e+01
336.000      4.36281e+01
337.000      4.21309e+01
338.000      4.00460e+01
339.000      3.75903e+01
340.000      3.49857e+01
341.000      3.24404e+01
342.000      3.01328e+01
343.000      2.82014e+01
344.000      2.67405e+01
345.000      2.58027e+01
346.000      2.54049e+01
347.000      2.55332e+01
348.000      2.61431e+01
349.000      2.71562e+01
350.000      2.84566e+01
351.000      2.98933e+01
352.000      3.12909e+01
353.000      3.24709e+01
354.000      3.32762e+01
355.000      3.35932e+01
356.000      3.33641e+01
357.000      3.25862e+01
358.000      3.13022e+01
359.000      2.95842e+01
360.000      2.75190e+01
361.000      2.51975e+01
362.000      2.27093e+01
363.000      2.01416e+01
364.000      1.75781e+01
365.000      1.50986e+01
366.000      1.27754e+01
367.000      1.06690e+01
368.000      8.82381e+00
369.000      7.26689e+00
370.000      6.00939e+00
371.000      5.05126e+00
372.000      4.38642e+00
373.000      4.00613e+00
374.000      3.89893e+00
375.000      4.04792e+00
376.000      4.42802e+00
377.000      5.00648e+00
378.000      5.74860e+00
379.000      6.62712e+00
380.000      7.63079e+00
381.000      8.76632e+00
382.000      1.00501e+01
383.000      1.14908e+01
384.000      1.30696e+01
385.000      1.47277e+01
386.000      1.63692e+01
387.000      1.78802e+01
388.000      1.91590e+01
389.000      2.01433e+01
390.000      2.08246e+01
391.000      2.12415e+01
392.000      2.14558e+01
393.000      2.15222e+01
394.000      2.14628e+01
395.000      2.12585e+01
396.000      2.08573e+01
397.000      2.01964e+01
398.000      1.92280e+01
399.000      1.79399e+01
400.000      1.63657e+01
401.000      1.45813e+01
402.000      1.26923e+01
403.000      1.08147e+01
404.000      9.05521e+00
405.000      7.49662e+00
406.000      6.18857e+00
407.000      5.14683e+00
408.000      4.35855e+00
409.000      3.79125e+00
410.000      3.40251e+00
411.000      3.14816e+00
412.000      2.98796e+00
413.000      2.88879e+00
414.000      2.82598e+00
415.000      2.78329e+00
416.000      2.75166e+00
417.000      2.72678e+00
418.000      2.70573e+00
419.000      2.68363e+00
420.000      2.65138e+00
421.000      2.59584e+00
422.000      2.50249e+00
423.000      2.36006e+00
424.000      2.16512e+00
425.000      1.92506e+00
426.000      1.65794e+00
427.000      1.38935e+00
428.000      1.14705e+00
429.000      9.55210e-01
430.000      8.29482e-01
431.000      7.74137e-01
432.000      7.81510e-01
433.000      8.33747e-01
434.000      9.06420e-01
435.000      9.73374e-01
436.000      1.01184e+00
437.000      1.00675e+00
438.000      9.53136e-01
439.000      8.56129e-01
440.000      7.28523e-01
441.000      5.86895e-01
442.000      4.47443e-01
443.000      3.22778e-01
444.000      2.20304e-01
445.000      1.42257e-01
446.000      8.69068e-02
447.000      5.02289e-02
448.000      2.74646e-02
449.000      1.42073e-02
450.000      6.95295e-03
451.000      3.21917e-03
452.000      1.41005e-03
453.000      5.84313e-04
454.000      2.29072e-04
455.000      8.49607e-05
456.000      2.98113e-05
457.000      9.89603e-06
458.000      3.10784e-06
459.000      9.23367e-07
460.000      2.59542e-07
461.000      6.90173e-08
462.000      1.73631e-08
463.000      4.13249e-09
464.000      9.30498e-10
465.000      1.98215e-10
466.000      3.99462e-11
467.000      7.61608e-12
468.000      1.37374e-12
469.000      2.34421e-13
470.000      3.78448e-14
471.000      5.78007e-15
472.000      8.35174e-16
473.000      1.14167e-16
474.000      1.47645e-17
475.000      1.80641e-18
476.000      2.09089e-19
477.000      2.28962e-20
478.000      2.37199e-21
479.000      2.32477e-22
480.000      2.15558e-23
481.000      1.89090e-24
482.000      1.56924e-25
483.000      1.23204e-26
484.000      9.15127e-28
485.000      6.43064e-29
486.000      4.27509e-30
487.000      2.68877e-31
488.000      1.59985e-32
489.000      9.00581e-34
490.000      4.79605e-35
491.000      2.41637e-36
492.000      1.15175e-37
493.000      5.19365e-39
494.000      2.21567e-40
495.000      8.94239e-42
496.000      3.41444e-43
497.000      1.23340e-44
498.000      4.21508e-46
499.000      1.36278e-47
500.000      4.16834e-49
