# Gaussian folded, width=10 cm^-1
# [cm^-1] arbitrary
0.000      3.00000e+00
1.000      2.91796e+00
2.000      2.68508e+00
3.000      2.33749e+00
4.000      1.92514e+00
5.000      1.50000e+00
6.000      1.10570e+00
7.000      7.71085e-01
8.000      5.08727e-01
9.000      3.17530e-01
10.000      1.87501e-01
11.000      1.04750e-01
12.000      5.53721e-02
13.000      2.77212e-02
14.000      1.32189e-02
15.000      6.21805e-03
16.000      3.45054e-03
17.000      3.47803e-03
18.000      6.40627e-03
19.000      1.40010e-02
20.000      3.02592e-02
21.000      6.23982e-02
22.000      1.22068e-01
23.000      2.26345e-01
24.000      3.97778e-01
25.000      6.62554e-01
26.000      1.04600e+00
27.000      1.56526e+00
28.000      2.22027e+00
29.000      2.98538e+00
30.000      3.80526e+00
31.000      4.59800e+00
32.000      5.26696e+00
33.000      5.71958e+00
34.000      5.88823e+00
35.000      5.74679e+00
36.000      5.31731e+00
37.000      4.66451e+00
38.000      3.88006e+00
39.000      3.06210e+00
40.000      2.29650e+00
41.000      1.64499e+00
42.000      1.14228e+00
43.000      8.00797e-01
44.000      6.19781e-01
45.000      5.94615e-01
46.000      7.22989e-01
47.000      1.00604e+00
48.000      1.44422e+00
49.000      2.02946e+00
50.000      2.73631e+00
51.000      3.51582e+00
52.000      4.29533e+00
53.000      4.98623e+00
54.000      5.49865e+00
55.000      5.75994e+00
56.000      5.73122e+00
57.000      5.41677e+00
58.000      4.86315e+00
59.000      4.14822e+00
60.000      3.36400e+00
61.000      2.59870e+00
62.000      1.92326e+00
63.000      1.38525e+00
64.000      1.01022e+00
65.000      8.07957e-01
66.000      7.80072e-01
67.000      9.25340e-01
68.000      1.24079e+00
69.000      1.71832e+00
70.000      2.33866e+00
71.000      3.06573e+00
72.000      3.84493e+00
73.000      4.60795e+00
74.000      5.28438e+00
75.000      5.81795e+00
76.000      6.18252e+00
77.000      6.39249e+00
78.000      6.50301e+00
79.000      6.59907e+00
80.000      6.77585e+00
81.000      7.11628e+00
82.000      7.67246e+00
83.000      8.45639e+00
84.000      9.44144e+00
85.000      1.05723e+01
86.000      1.17785e+01
87.000      1.29853e+01
88.000      1.41206e+01
89.000      1.51162e+01
90.000      1.59080e+01
91.000      1.64382e+01
92.000      1.66610e+01
93.000      1.65521e+01
94.000      1.61170e+01
95.000      1.53952e+01
96.000      1.44567e+01
97.000      1.33919e+01
98.000      1.22965e+01
99.000      1.12567e+01
100.000      1.03396e+01
101.000      9.58956e+00
102.000      9.03243e+00
103.000      8.68322e+00
104.000      8.55407e+00
105.000      8.65887e+00
106.000      9.01255e+00
107.000      9.62562e+00
108.000      1.04960e+01
109.000      1.16009e+01
110.000      1.28915e+01
111.000      1.42922e+01
112.000      1.57060e+01
113.000      1.70252e+01
114.000      1.81463e+01
115.000      1.89857e+01
116.000      1.94932e+01
117.000      1.96586e+01
118.000      1.95112e+01
119.000      1.91107e+01
120.000      1.85338e+01
121.000      1.78594e+01
122.000      1.71567e+01
123.000      1.64777e+01
124.000      1.58555e+01
125.000      1.53067e+01
126.000      1.48346e+01
127.000      1.44328e+01
128.000      1.40879e+01
129.000      1.37802e+01
130.000      1.34858e+01
131.000      1.31780e+01
132.000      1.28319e+01
133.000      1.24281e+01
134.000      1.19577e+01
135.000      1.14248e+01
136.000      1.08473e+01
137.000      1.02544e+01
138.000      9.68071e+00
139.000      9.15979e+00
140.000      8.71663e+00
141.000      8.36235e+00
142.000      8.09209e+00
143.000      7.88676e+00
144.000      7.71822e+00
145.000      7.55626e+00
146.000      7.37546e+00
147.000      7.15981e+00
148.000      6.90405e+00
149.000      6.61163e+00
150.000      6.29055e+00
151.000      5.94888e+00
152.000      5.59175e+00
153.000      5.22099e+00
154.000      4.83694e+00
155.000      4.44137e+00
156.000      4.03987e+00
157.000      3.64228e+00
158.000      3.26128e+00
159.000      2.90948e+00
160.000      2.59671e+00
161.000      2.32879e+00
162.000      2.10845e+00
163.000      1.93828e+00
164.000      1.82453e+00
165.000      1.77996e+00
166.000      1.82427e+00
167.000      1.98140e+00
168.000      2.27389e+00
169.000      2.71601e+00
170.000      3.30764e+00
171.000      4.03084e+00
172.000      4.85050e+00
173.000      5.71911e+00
174.000      6.58507e+00
175.000      7.40252e+00
176.000      8.14050e+00
177.000      8.78891e+00
178.000      9.35916e+00
179.000      9.87898e+00
180.000      1.03824e+01
181.000      1.08980e+01
182.000      1.14393e+01
183.000      1.20012e+01
184.000      1.25626e+01
185.000      1.30952e+01
186.000      1.35745e+01
187.000      1.39878e+01
188.000      1.43378e+01
189.000      1.46400e+01
190.000      1.49159e+01
191.000      1.51857e+01
192.000      1.54624e+01
193.000      1.57491e+01
194.000      1.60413e+01
195.000      1.63302e+01
196.000      1.66084e+01
197.000      1.68741e+01
198.000      1.71336e+01
199.000      1.74011e+01
200.000      1.76950e+01
201.000      1.80322e+01
202.000      1.84197e+01
203.000      1.88478e+01
204.000      1.92859e+01
205.000      1.96833e+01
206.000      1.99773e+01
207.000      2.01053e+01
208.000      2.00191e+01
209.000      1.96974e+01
210.000      1.91515e+01
211.000      1.84241e+01
212.000      1.75820e+01
213.000      1.67041e+01
214.000      1.58705e+01
215.000      1.51529e+01
216.000      1.46086e+01
217.000      1.42764e+01
218.000      1.41731e+01
219.000      1.42917e+01
220.000      1.45998e+01
221.000      1.50425e+01
222.000      1.55507e+01
223.000      1.60542e+01
224.000      1.64970e+01
225.000      1.68501e+01
226.000      1.71172e+01
227.000      1.73308e+01
228.000      1.75399e+01
229.000      1.77938e+01
230.000      1.81270e+01
231.000      1.85513e+01
232.000      1.90546e+01
233.000      1.96078e+01
234.000      2.01736e+01
235.000      2.07157e+01
236.000      2.12040e+01
237.000      2.16165e+01
238.000      2.19383e+01
239.000      2.21605e+01
240.000      2.22802e+01
241.000      2.23018e+01
242.000      2.22397e+01
243.000      2.21193e+01
244.000      2.19748e+01
245.000      2.18435e+01
246.000      2.17563e+01
247.000      2.17273e+01
248.000      2.17452e+01
249.000      2.17706e+01
250.000      2.17399e+01
251.000      2.15767e+01
252.000      2.12076e+01
253.000      2.05792e+01
254.000      1.96712e+01
255.000      1.85029e+01
256.000      1.71309e+01
257.000      1.56398e+01
258.000      1.41269e+01
259.000      1.26857e+01
260.000      1.13904e+01
261.000      1.02863e+01
262.000      9.38596e+00
263.000      8.67221e+00
264.000      8.10648e+00
265.000      7.63978e+00
266.000      7.22361e+00
267.000      6.81847e+00
268.000      6.39885e+00
269.000      5.95473e+00
270.000      5.49052e+00
271.000      5.02266e+00
272.000      4.57652e+00
273.000      4.18284e+00
274.000      3.87337e+00
275.000      3.67553e+00
276.000      3.60654e+00
277.000      3.66849e+00
278.000      3.84580e+00
279.000      4.10663e+00
280.000      4.40827e+00
281.000      4.70509e+00
282.000      4.95678e+00
283.000      5.13454e+00
284.000      5.22357e+00
285.000      5.22232e+00
286.000      5.13926e+00
287.000      4.98915e+00
288.000      4.78999e+00
289.000      4.56106e+00
290.000      4.32203e+00
291.000      4.09245e+00
292.000      3.89130e+00
293.000      3.73581e+00
294.000      3.63972e+00
295.000      3.61056e+00
296.000      3.64664e+00
297.000      3.73449e+00
298.000      3.84803e+00
299.000      3.95067e+00
300.000      4.00089e+00
301.000      3.96049e+00
302.000      3.80352e+00
303.000      3.52320e+00
304.000      3.13440e+00
305.000      2.67088e+00
306.000      2.17803e+00
307.000      1.70368e+00
308.000      1.28987e+00
309.000      9.67615e-01
310.000      7.55481e-01
311.000      6.61071e-01
312.000      6.83719e-01
313.000      8.16862e-01
314.000      1.04932e+00
315.000      1.36569e+00
316.000      1.74685e+00
317.000      2.17133e+00
318.000      2.61807e+00
319.000      3.06986e+00
320.000      3.51644e+00
321.000      3.95605e+00
322.000      4.39489e+00
323.000      4.84459e+00
324.000      5.31885e+00
325.000      5.83033e+00
326.000      6.38883e+00
327.000      7.00119e+00
328.000      7.67256e+00
329.000      8.40802e+00
330.000      9.21334e+00
331.000      1.00937e+01
332.000      1.10499e+01
333.000      1.20730e+01
334.000      1.31385e+01
335.000      1.42038e+01
336.000      1.52088e+01
337.000      1.60828e+01
338.000      1.67550e+01
339.000      1.71667e+01
340.000      1.72814e+01
341.000      1.70916e+01
342.000      1.66183e+01
343.000      1.59065e+01
344.000      1.50154e+01
345.000      1.40087e+01
346.000      1.29445e+01
347.000      1.18696e+01
348.000      1.08178e+01
349.000      9.81204e+00
350.000      8.87025e+00
351.000      8.01159e+00
352.000      7.26045e+00
353.000      6.64629e+00
354.000      6.19829e+00
355.000      5.93639e+00
356.000      5.86153e+00
357.000      5.94916e+00
358.000      6.14918e+00
359.000      6.39373e+00
360.000      6.61111e+00
361.000      6.74183e+00
362.000      6.75164e+00
363.000      6.63704e+00
364.000      6.42172e+00
365.000      6.14537e+00
366.000      5.84945e+00
367.000      5.56468e+00
368.000      5.30458e+00
369.000      5.06597e+00
370.000      4.83534e+00
371.000      4.59775e+00
372.000      4.34475e+00
373.000      4.07904e+00
374.000      3.81489e+00
375.000      3.57511e+00
376.000      3.38575e+00
377.000      3.27045e+00
378.000      3.24534e+00
379.000      3.31558e+00
380.000      3.47378e+00
381.000      3.70039e+00
382.000      3.96581e+00
383.000      4.23381e+00
384.000      4.46586e+00
385.000      4.62579e+00
386.000      4.68432e+00
387.000      4.62298e+00
388.000      4.43652e+00
389.000      4.13349e+00
390.000      3.73450e+00
391.000      3.26877e+00
392.000      2.76950e+00
393.000      2.26928e+00
394.000      1.79632e+00
395.000      1.37191e+00
396.000      1.00939e+00
397.000      7.14240e-01
398.000      4.85169e-01
399.000      3.15793e-01
400.000      1.96604e-01
401.000      1.16878e-01
402.000      6.62465e-02
403.000      3.57517e-02
404.000      1.83499e-02
405.000      8.94845e-03
406.000      4.14270e-03
407.000      1.81949e-03
408.000      7.57714e-04
409.000      2.99060e-04
410.000      1.11828e-04
411.000      3.96058e-05
412.000      1.32825e-05
413.000      4.21731e-06
414.000      1.26754e-06
415.000      3.60581e-07
416.000      9.70786e-08
417.000      2.47337e-08
418.000      5.96311e-09
419.000      1.36037e-09
420.000      2.93644e-10
421.000      5.99730e-11
422.000      1.15891e-11
423.000      2.11881e-12
424.000      3.66506e-13
425.000      5.99801e-14
426.000      9.28684e-15
427.000      1.36038e-15
428.000      1.88530e-16
429.000      2.47188e-17
430.000      3.06619e-18
431.000      3.59826e-19
432.000      3.99493e-20
433.000      4.19611e-21
434.000      4.16970e-22
435.000      3.91997e-23
436.000      3.48643e-24
437.000      2.93357e-25
438.000      2.33525e-26
439.000      1.75868e-27
440.000      1.25302e-28
441.000      8.44597e-30
442.000      5.38590e-31
443.000      3.24926e-32
444.000      1.85451e-33
445.000      1.00136e-34
446.000      5.11531e-36
447.000      2.47212e-37
448.000      1.13028e-38
449.000      4.88899e-40
450.000      2.00065e-41
451.000      7.74532e-43
452.000      2.83678e-44
453.000      9.82947e-46
454.000      3.22219e-47
455.000      9.99289e-49
456.000      2.93189e-50
457.000      8.13810e-52
458.000      2.13705e-53
459.000      5.30915e-55
460.000      1.24782e-56
461.000      2.77458e-58
462.000      5.83661e-60
463.000      1.16156e-61
464.000      2.18695e-63
465.000      3.89542e-65
466.000      6.56428e-67
467.000      1.04650e-68
468.000      1.57836e-70
469.000      2.25212e-72
470.000      3.04016e-74
471.000      3.88255e-76
472.000      4.69090e-78
473.000      5.36182e-80
474.000      5.79811e-82
475.000      5.93168e-84
476.000      5.74099e-86
477.000      5.25670e-88
478.000      4.55363e-90
479.000      3.73181e-92
480.000      2.89334e-94
481.000      2.12225e-96
482.000      1.47269e-98
483.000     9.66816e-101
484.000     6.00473e-103
485.000     3.52827e-105
486.000     1.96131e-107
487.000     1.03145e-109
488.000     5.13180e-112
489.000     2.41550e-114
490.000     1.07563e-116
491.000     4.53144e-119
492.000     1.80604e-121
493.000     6.80982e-124
494.000     2.42919e-126
495.000     8.19794e-129
496.000     2.61738e-131
497.000     7.90578e-134
498.000     2.25913e-136
499.000     6.10738e-139
500.000     1.56202e-141
