# Gaussian folded, width=10 cm^-1
# [cm^-1] arbitrary
0.000      3.00000e+00
1.000      2.91796e+00
2.000      2.68508e+00
3.000      2.33749e+00
4.000      1.92514e+00
5.000      1.50000e+00
6.000      1.10570e+00
7.000      7.71085e-01
8.000      5.08727e-01
9.000      3.17530e-01
10.000      1.87501e-01
11.000      1.04749e-01
12.000      5.53715e-02
13.000      2.77193e-02
14.000      1.32135e-02
15.000      6.20393e-03
16.000      3.41586e-03
17.000      3.39792e-03
18.000      6.23232e-03
19.000      1.36464e-02
20.000      2.95815e-02
21.000      6.11860e-02
22.000      1.20043e-01
23.000      2.23197e-01
24.000      3.93242e-01
25.000      6.56533e-01
26.000      1.03871e+00
27.000      1.55734e+00
28.000      2.21281e+00
29.000      2.97976e+00
30.000      3.80284e+00
31.000      4.59974e+00
32.000      5.27307e+00
33.000      5.72934e+00
34.000      5.90014e+00
35.000      5.75891e+00
36.000      5.32778e+00
37.000      4.67196e+00
38.000      3.88384e+00
39.000      3.06220e+00
40.000      2.29321e+00
41.000      1.63852e+00
42.000      1.13239e+00
43.000      7.86675e-01
44.000      6.00236e-01
45.000      5.68589e-01
46.000      6.90356e-01
47.000      9.68466e-01
48.000      1.40577e+00
49.000      1.99654e+00
50.000      2.71666e+00
51.000      3.51665e+00
52.000      4.32104e+00
53.000      5.03645e+00
54.000      5.56758e+00
55.000      5.83734e+00
56.000      5.80487e+00
57.000      5.47565e+00
58.000      4.90009e+00
59.000      4.16124e+00
60.000      3.35589e+00
61.000      2.57534e+00
62.000      1.89132e+00
63.000      1.35018e+00
64.000      9.75068e-01
65.000      7.73157e-01
66.000      7.44072e-01
67.000      8.85829e-01
68.000      1.19616e+00
69.000      1.66903e+00
70.000      2.28797e+00
71.000      3.01946e+00
72.000      3.80996e+00
73.000      4.58953e+00
74.000      5.28309e+00
75.000      5.82727e+00
76.000      6.18832e+00
77.000      6.37506e+00
78.000      6.44157e+00
79.000      6.47751e+00
80.000      6.58819e+00
81.000      6.87028e+00
82.000      7.39047e+00
83.000      8.17329e+00
84.000      9.20036e+00
85.000      1.04190e+01
86.000      1.17549e+01
87.000      1.31238e+01
88.000      1.44381e+01
89.000      1.56100e+01
90.000      1.65529e+01
91.000      1.71862e+01
92.000      1.74449e+01
93.000      1.72922e+01
94.000      1.67311e+01
95.000      1.58098e+01
96.000      1.46183e+01
97.000      1.32754e+01
98.000      1.19087e+01
99.000      1.06350e+01
100.000      9.54497e+00
101.000      8.69659e+00
102.000      8.11786e+00
103.000      7.81610e+00
104.000      7.78931e+00
105.000      8.03494e+00
106.000      8.55270e+00
107.000      9.34098e+00
108.000      1.03885e+01
109.000      1.16650e+01
110.000      1.31147e+01
111.000      1.46550e+01
112.000      1.61822e+01
113.000      1.75831e+01
114.000      1.87499e+01
115.000      1.95966e+01
116.000      2.00719e+01
117.000      2.01660e+01
118.000      1.99104e+01
119.000      1.93703e+01
120.000      1.86313e+01
121.000      1.77851e+01
122.000      1.69170e+01
123.000      1.60962e+01
124.000      1.53712e+01
125.000      1.47689e+01
126.000      1.42950e+01
127.000      1.39369e+01
128.000      1.36684e+01
129.000      1.34548e+01
130.000      1.32614e+01
131.000      1.30598e+01
132.000      1.28332e+01
133.000      1.25777e+01
134.000      1.22988e+01
135.000      1.20059e+01
136.000      1.17056e+01
137.000      1.13977e+01
138.000      1.10741e+01
139.000      1.07222e+01
140.000      1.03294e+01
141.000      9.88811e+00
142.000      9.39832e+00
143.000      8.86792e+00
144.000      8.31070e+00
145.000      7.74340e+00
146.000      7.18302e+00
147.000      6.64498e+00
148.000      6.14215e+00
149.000      5.68438e+00
150.000      5.27798e+00
151.000      4.92514e+00
152.000      4.62354e+00
153.000      4.36641e+00
154.000      4.14335e+00
155.000      3.94164e+00
156.000      3.74771e+00
157.000      3.54873e+00
158.000      3.33426e+00
159.000      3.09833e+00
160.000      2.84176e+00
161.000      2.57447e+00
162.000      2.31649e+00
163.000      2.09689e+00
164.000      1.94999e+00
165.000      1.90951e+00
166.000      2.00188e+00
167.000      2.24063e+00
168.000      2.62349e+00
169.000      3.13318e+00
170.000      3.74158e+00
171.000      4.41606e+00
172.000      5.12608e+00
173.000      5.84797e+00
174.000      6.56689e+00
175.000      7.27547e+00
176.000      7.97051e+00
177.000      8.64905e+00
178.000      9.30570e+00
179.000      9.93224e+00
180.000      1.05194e+01
181.000      1.10601e+01
182.000      1.15521e+01
183.000      1.19998e+01
184.000      1.24126e+01
185.000      1.28021e+01
186.000      1.31781e+01
187.000      1.35454e+01
188.000      1.39024e+01
189.000      1.42436e+01
190.000      1.45625e+01
191.000      1.48571e+01
192.000      1.51321e+01
193.000      1.53999e+01
194.000      1.56782e+01
195.000      1.59852e+01
196.000      1.63355e+01
197.000      1.67372e+01
198.000      1.71901e+01
199.000      1.76873e+01
200.000      1.82162e+01
201.000      1.87599e+01
202.000      1.92975e+01
203.000      1.98036e+01
204.000      2.02477e+01
205.000      2.05937e+01
206.000      2.08019e+01
207.000      2.08326e+01
208.000      2.06518e+01
209.000      2.02388e+01
210.000      1.95926e+01
211.000      1.87364e+01
212.000      1.77173e+01
213.000      1.66023e+01
214.000      1.54715e+01
215.000      1.44086e+01
216.000      1.34935e+01
217.000      1.27946e+01
218.000      1.23637e+01
219.000      1.22314e+01
220.000      1.24045e+01
221.000      1.28653e+01
222.000      1.35739e+01
223.000      1.44741e+01
224.000      1.55009e+01
225.000      1.65891e+01
226.000      1.76799e+01
227.000      1.87250e+01
228.000      1.96875e+01
229.000      2.05398e+01
230.000      2.12605e+01
231.000      2.18325e+01
232.000      2.22426e+01
233.000      2.24828e+01
234.000      2.25538e+01
235.000      2.24673e+01
236.000      2.22468e+01
237.000      2.19251e+01
238.000      2.15397e+01
239.000      2.11275e+01
240.000      2.07195e+01
241.000      2.03400e+01
242.000      2.00060e+01
243.000      1.97298e+01
244.000      1.95214e+01
245.000      1.93885e+01
246.000      1.93350e+01
247.000      1.93564e+01
248.000      1.94341e+01
249.000      1.95305e+01
250.000      1.95876e+01
251.000      1.95313e+01
252.000      1.92820e+01
253.000      1.87702e+01
254.000      1.79532e+01
255.000      1.68283e+01
256.000      1.54380e+01
257.000      1.38656e+01
258.000      1.22212e+01
259.000      1.06222e+01
260.000      9.17353e+00
261.000      7.95152e+00
262.000      6.99571e+00
263.000      6.30847e+00
264.000      5.86171e+00
265.000      5.60788e+00
266.000      5.49227e+00
267.000      5.46397e+00
268.000      5.48382e+00
269.000      5.52841e+00
270.000      5.59017e+00
271.000      5.67420e+00
272.000      5.79284e+00
273.000      5.95908e+00
274.000      6.18028e+00
275.000      6.45345e+00
276.000      6.76325e+00
277.000      7.08306e+00
278.000      7.37876e+00
279.000      7.61405e+00
280.000      7.75566e+00
281.000      7.77752e+00
282.000      7.66320e+00
283.000      7.40711e+00
284.000      7.01497e+00
285.000      6.50397e+00
286.000      5.90257e+00
287.000      5.24954e+00
288.000      4.59145e+00
289.000      3.97846e+00
290.000      3.45824e+00
291.000      3.06914e+00
292.000      2.83374e+00
293.000      2.75443e+00
294.000      2.81228e+00
295.000      2.96975e+00
296.000      3.17668e+00
297.000      3.37847e+00
298.000      3.52480e+00
299.000      3.57744e+00
300.000      3.51591e+00
301.000      3.34015e+00
302.000      3.06976e+00
303.000      2.73985e+00
304.000      2.39411e+00
305.000      2.07657e+00
306.000      1.82404e+00
307.000      1.66109e+00
308.000      1.59880e+00
309.000      1.63722e+00
310.000      1.77006e+00
311.000      1.98937e+00
312.000      2.28817e+00
313.000      2.66004e+00
314.000      3.09628e+00
315.000      3.58250e+00
316.000      4.09669e+00
317.000      4.61038e+00
318.000      5.09281e+00
319.000      5.51703e+00
320.000      5.86593e+00
321.000      6.13668e+00
322.000      6.34232e+00
323.000      6.51042e+00
324.000      6.67901e+00
325.000      6.89056e+00
326.000      7.18511e+00
327.000      7.59401e+00
328.000      8.13573e+00
329.000      8.81448e+00
330.000      9.62162e+00
331.000      1.05384e+01
332.000      1.15385e+01
333.000      1.25883e+01
334.000      1.36465e+01
335.000      1.46625e+01
336.000      1.55771e+01
337.000      1.63264e+01
338.000      1.68501e+01
339.000      1.71013e+01
340.000      1.70569e+01
341.000      1.67232e+01
342.000      1.61355e+01
343.000      1.53515e+01
344.000      1.44381e+01
345.000      1.34584e+01
346.000      1.24600e+01
347.000      1.14695e+01
348.000      1.04947e+01
349.000      9.53259e+00
350.000      8.58070e+00
351.000      7.64751e+00
352.000      6.75809e+00
353.000      5.95288e+00
354.000      5.27985e+00
355.000      4.78254e+00
356.000      4.48798e+00
357.000      4.39844e+00
358.000      4.48947e+00
359.000      4.71469e+00
360.000      5.01534e+00
361.000      5.33157e+00
362.000      5.61230e+00
363.000      5.82152e+00
364.000      5.94040e+00
365.000      5.96599e+00
366.000      5.90747e+00
367.000      5.78120e+00
368.000      5.60539e+00
369.000      5.39536e+00
370.000      5.16030e+00
371.000      4.90265e+00
372.000      4.62031e+00
373.000      4.31104e+00
374.000      3.97724e+00
375.000      3.62919e+00
376.000      3.28548e+00
377.000      2.97086e+00
378.000      2.71261e+00
379.000      2.53689e+00
380.000      2.46548e+00
381.000      2.51262e+00
382.000      2.68141e+00
383.000      2.95974e+00
384.000      3.31742e+00
385.000      3.70669e+00
386.000      4.06795e+00
387.000      4.34036e+00
388.000      4.47480e+00
389.000      4.44462e+00
390.000      4.25067e+00
391.000      3.91858e+00
392.000      3.49009e+00
393.000      3.01171e+00
394.000      2.52499e+00
395.000      2.06094e+00
396.000      1.63899e+00
397.000      1.26904e+00
398.000      9.54592e-01
399.000      6.95376e-01
400.000      4.88729e-01
401.000      3.30172e-01
402.000      2.13675e-01
403.000      1.32081e-01
404.000      7.77983e-02
405.000      4.35852e-02
406.000      2.31915e-02
407.000      1.17079e-02
408.000      5.60334e-03
409.000      2.54089e-03
410.000      1.09122e-03
411.000      4.43702e-04
412.000      1.70779e-04
413.000      6.22112e-05
414.000      2.14460e-05
415.000      6.99572e-06
416.000      2.15924e-06
417.000      6.30570e-07
418.000      1.74228e-07
419.000      4.55452e-08
420.000      1.12643e-08
421.000      2.63569e-09
422.000      5.83461e-10
423.000      1.22195e-10
424.000      2.42112e-11
425.000      4.53839e-12
426.000      8.04834e-13
427.000      1.35030e-13
428.000      2.14325e-14
429.000      3.21837e-15
430.000      4.57209e-16
431.000      6.14488e-17
432.000      7.81320e-18
433.000      9.39859e-19
434.000      1.06958e-19
435.000      1.15155e-20
436.000      1.17293e-21
437.000      1.13025e-22
438.000      1.03038e-23
439.000      8.88663e-25
440.000      7.25095e-26
441.000      5.59719e-27
442.000      4.08755e-28
443.000      2.82406e-29
444.000      1.84587e-30
445.000      1.14142e-31
446.000      6.67744e-33
447.000      3.69565e-34
448.000      1.93504e-35
449.000      9.58529e-37
450.000      4.49199e-38
451.000      1.99154e-39
452.000      8.35331e-41
453.000      3.31471e-42
454.000      1.24437e-43
455.000      4.41948e-45
456.000      1.48494e-46
457.000      4.72027e-48
458.000      1.41952e-49
459.000      4.03862e-51
460.000      1.08703e-52
461.000      2.76803e-54
462.000      6.66830e-56
463.000      1.51977e-57
464.000      3.27686e-59
465.000      6.68429e-61
466.000      1.28994e-62
467.000      2.35507e-64
468.000      4.06774e-66
469.000      6.64694e-68
470.000      1.02756e-69
471.000      1.50283e-71
472.000      2.07937e-73
473.000      2.72188e-75
474.000      3.37074e-77
475.000      3.94911e-79
476.000      4.37714e-81
477.000      4.58986e-83
478.000      4.55329e-85
479.000      4.27336e-87
480.000      3.79430e-89
481.000      3.18721e-91
482.000      2.53284e-93
483.000      1.90424e-95
484.000      1.35442e-97
485.000     9.11388e-100
486.000     5.80191e-102
487.000     3.49426e-104
488.000     1.99094e-106
489.000     1.07319e-108
490.000     5.47288e-111
491.000     2.64041e-113
492.000     1.20516e-115
493.000     5.20396e-118
494.000     2.12590e-120
495.000     8.21614e-123
496.000     3.00408e-125
497.000     1.03913e-127
498.000     3.40056e-130
499.000     1.05280e-132
500.000     3.08361e-135
