# Gaussian folded, width=10 cm^-1
# [cm^-1] arbitrary
0.000      3.00000e+00
1.000      2.91796e+00
2.000      2.68508e+00
3.000      2.33749e+00
4.000      1.92514e+00
5.000      1.50000e+00
6.000      1.10570e+00
7.000      7.71085e-01
8.000      5.08727e-01
9.000      3.17529e-01
10.000      1.87500e-01
11.000      1.04746e-01
12.000      5.53594e-02
13.000      2.76808e-02
14.000      1.30978e-02
15.000      5.87482e-03
16.000      2.52992e-03
17.000      1.14207e-03
18.000      8.00514e-04
19.000      1.28145e-03
20.000      2.98077e-03
21.000      7.12839e-03
22.000      1.63288e-02
23.000      3.54685e-02
24.000      7.29582e-02
25.000      1.42092e-01
26.000      2.62012e-01
27.000      4.57432e-01
28.000      7.56111e-01
29.000      1.18330e+00
30.000      1.75331e+00
31.000      2.45965e+00
32.000      3.26690e+00
33.000      4.10815e+00
34.000      4.89104e+00
35.000      5.51316e+00
36.000      5.88355e+00
37.000      5.94452e+00
38.000      5.68629e+00
39.000      5.14959e+00
40.000      4.41516e+00
41.000      3.58384e+00
42.000      2.75413e+00
43.000      2.00396e+00
44.000      1.38103e+00
45.000      9.02582e-01
46.000      5.62241e-01
47.000      3.40212e-01
48.000      2.13421e-01
49.000      1.63422e-01
50.000      1.81281e-01
51.000      2.69513e-01
52.000      4.41288e-01
53.000      7.16949e-01
54.000      1.11772e+00
55.000      1.65699e+00
56.000      2.33043e+00
57.000      3.10767e+00
58.000      3.92880e+00
59.000      4.70874e+00
60.000      5.35023e+00
61.000      5.76323e+00
62.000      5.88557e+00
63.000      5.69825e+00
64.000      5.23038e+00
65.000      4.55191e+00
66.000      3.75681e+00
67.000      2.94256e+00
68.000      2.19221e+00
69.000      1.56394e+00
70.000      1.08950e+00
71.000      7.79923e-01
72.000      6.34850e-01
73.000      6.51256e-01
74.000      8.28461e-01
75.000      1.16772e+00
76.000      1.66663e+00
77.000      2.31053e+00
78.000      3.06407e+00
79.000      3.86714e+00
80.000      4.63829e+00
81.000      5.28670e+00
82.000      5.73092e+00
83.000      5.91947e+00
84.000      5.84711e+00
85.000      5.56127e+00
86.000      5.15596e+00
87.000      4.75434e+00
88.000      4.48445e+00
89.000      4.45432e+00
90.000      4.73271e+00
91.000      5.33972e+00
92.000      6.24858e+00
93.000      7.39722e+00
94.000      8.70499e+00
95.000      1.00890e+01
96.000      1.14751e+01
97.000      1.27999e+01
98.000      1.40072e+01
99.000      1.50407e+01
100.000      1.58400e+01
101.000      1.63424e+01
102.000      1.64919e+01
103.000      1.62517e+01
104.000      1.56161e+01
105.000      1.46182e+01
106.000      1.33300e+01
107.000      1.18564e+01
108.000      1.03223e+01
109.000      8.85569e+00
110.000      7.57045e+00
111.000      6.55097e+00
112.000      5.84365e+00
113.000      5.45706e+00
114.000      5.37138e+00
115.000      5.55407e+00
116.000      5.97655e+00
117.000      6.62610e+00
118.000      7.50842e+00
119.000      8.64008e+00
120.000      1.00337e+01
121.000      1.16814e+01
122.000      1.35428e+01
123.000      1.55414e+01
124.000      1.75708e+01
125.000      1.95079e+01
126.000      2.12284e+01
127.000      2.26217e+01
128.000      2.36007e+01
129.000      2.41062e+01
130.000      2.41092e+01
131.000      2.36103e+01
132.000      2.26396e+01
133.000      2.12572e+01
134.000      1.95522e+01
135.000      1.76391e+01
136.000      1.56495e+01
137.000      1.37203e+01
138.000      1.19791e+01
139.000      1.05300e+01
140.000      9.44351e+00
141.000      8.75161e+00
142.000      8.44954e+00
143.000      8.50208e+00
144.000      8.85282e+00
145.000      9.43341e+00
146.000      1.01706e+01
147.000      1.09901e+01
148.000      1.18172e+01
149.000      1.25772e+01
150.000      1.31961e+01
151.000      1.36061e+01
152.000      1.37530e+01
153.000      1.36059e+01
154.000      1.31648e+01
155.000      1.24623e+01
156.000      1.15586e+01
157.000      1.05307e+01
158.000      9.45727e+00
159.000      8.40570e+00
160.000      7.42232e+00
161.000      6.52934e+00
162.000      5.72745e+00
163.000      5.00273e+00
164.000      4.33532e+00
165.000      3.70764e+00
166.000      3.11001e+00
167.000      2.54278e+00
168.000      2.01484e+00
169.000      1.53953e+00
170.000      1.12967e+00
171.000      7.93369e-01
172.000      5.31880e-01
173.000      3.39692e-01
174.000      2.06379e-01
175.000      1.19226e-01
176.000      6.56922e-02
177.000      3.51534e-02
178.000      1.98135e-02
179.000      1.49788e-02
180.000      1.90452e-02
181.000      3.34852e-02
182.000      6.29575e-02
183.000      1.15448e-01
184.000      2.02163e-01
185.000      3.36774e-01
186.000      5.33717e-01
187.000      8.05462e-01
188.000      1.15918e+00
189.000      1.59363e+00
190.000      2.09740e+00
191.000      2.64944e+00
192.000      3.22201e+00
193.000      3.78571e+00
194.000      4.31488e+00
195.000      4.79201e+00
196.000      5.20974e+00
197.000      5.57040e+00
198.000      5.88347e+00
199.000      6.16248e+00
200.000      6.42238e+00
201.000      6.67843e+00
202.000      6.94624e+00
203.000      7.24258e+00
204.000      7.58553e+00
205.000      7.99305e+00
206.000      8.47947e+00
207.000      9.05025e+00
208.000      9.69639e+00
209.000      1.03907e+01
210.000      1.10881e+01
211.000      1.17320e+01
212.000      1.22647e+01
213.000      1.26416e+01
214.000      1.28426e+01
215.000      1.28777e+01
216.000      1.27832e+01
217.000      1.26102e+01
218.000      1.24074e+01
219.000      1.22071e+01
220.000      1.20166e+01
221.000      1.18199e+01
222.000      1.15878e+01
223.000      1.12918e+01
224.000      1.09174e+01
225.000      1.04715e+01
226.000      9.98226e+00
227.000      9.49203e+00
228.000      9.04632e+00
229.000      8.68207e+00
230.000      8.41917e+00
231.000      8.25698e+00
232.000      8.17651e+00
233.000      8.14687e+00
234.000      8.13365e+00
235.000      8.10650e+00
236.000      8.04402e+00
237.000      7.93531e+00
238.000      7.77887e+00
239.000      7.58049e+00
240.000      7.35129e+00
241.000      7.10659e+00
242.000      6.86502e+00
243.000      6.64707e+00
244.000      6.47232e+00
245.000      6.35555e+00
246.000      6.30242e+00
247.000      6.30624e+00
248.000      6.34709e+00
249.000      6.39390e+00
250.000      6.40968e+00
251.000      6.35859e+00
252.000      6.21359e+00
253.000      5.96249e+00
254.000      5.61089e+00
255.000      5.18087e+00
256.000      4.70576e+00
257.000      4.22233e+00
258.000      3.76255e+00
259.000      3.34725e+00
260.000      2.98346e+00
261.000      2.66567e+00
262.000      2.38026e+00
263.000      2.11148e+00
264.000      1.84682e+00
265.000      1.58050e+00
266.000      1.31427e+00
267.000      1.05582e+00
268.000      8.15672e-01
269.000      6.03833e-01
270.000      4.27173e-01
271.000      2.88177e-01
272.000      1.85085e-01
273.000      1.13027e-01
274.000      6.55637e-02
275.000      3.60983e-02
276.000      1.88595e-02
277.000      9.36540e-03
278.000      4.47827e-03
279.000      2.22356e-03
280.000      1.54451e-03
281.000      2.12021e-03
282.000      4.32746e-03
283.000      9.39036e-03
284.000      1.97301e-02
285.000      3.94836e-02
286.000      7.50860e-02
287.000      1.35715e-01
288.000      2.33300e-01
289.000      3.81766e-01
290.000      5.95312e-01
291.000      8.85792e-01
292.000      1.25970e+00
293.000      1.71561e+00
294.000      2.24317e+00
295.000      2.82433e+00
296.000      3.43685e+00
297.000      4.05937e+00
298.000      4.67624e+00
299.000      5.28054e+00
300.000      5.87384e+00
301.000      6.46285e+00
302.000      7.05385e+00
303.000      7.64724e+00
304.000      8.23430e+00
305.000      8.79736e+00
306.000      9.31364e+00
307.000      9.76106e+00
308.000      1.01242e+01
309.000      1.03985e+01
310.000      1.05913e+01
311.000      1.07205e+01
312.000      1.08114e+01
313.000      1.08930e+01
314.000      1.09952e+01
315.000      1.11472e+01
316.000      1.13765e+01
317.000      1.17079e+01
318.000      1.21627e+01
319.000      1.27566e+01
320.000      1.34969e+01
321.000      1.43806e+01
322.000      1.53943e+01
323.000      1.65176e+01
324.000      1.77286e+01
325.000      1.90109e+01
326.000      2.03589e+01
327.000      2.17773e+01
328.000      2.32748e+01
329.000      2.48530e+01
330.000      2.64941e+01
331.000      2.81529e+01
332.000      2.97568e+01
333.000      3.12153e+01
334.000      3.24376e+01
335.000      3.33526e+01
336.000      3.39257e+01
337.000      3.41689e+01
338.000      3.41383e+01
339.000      3.39222e+01
340.000      3.36214e+01
341.000      3.33264e+01
342.000      3.30993e+01
343.000      3.29629e+01
344.000      3.29007e+01
345.000      3.28650e+01
346.000      3.27910e+01
347.000      3.26114e+01
348.000      3.22665e+01
349.000      3.17112e+01
350.000      3.09159e+01
351.000      2.98661e+01
352.000      2.85605e+01
353.000      2.70111e+01
354.000      2.52434e+01
355.000      2.32978e+01
356.000      2.12300e+01
357.000      1.91102e+01
358.000      1.70194e+01
359.000      1.50435e+01
360.000      1.32651e+01
361.000      1.17534e+01
362.000      1.05551e+01
363.000      9.68735e+00
364.000      9.13462e+00
365.000      8.85004e+00
366.000      8.76105e+00
367.000      8.77845e+00
368.000      8.80764e+00
369.000      8.76068e+00
370.000      8.56785e+00
371.000      8.18748e+00
372.000      7.61234e+00
373.000      6.87144e+00
374.000      6.02629e+00
375.000      5.16205e+00
376.000      4.37522e+00
377.000      3.76029e+00
378.000      3.39799e+00
379.000      3.34686e+00
380.000      3.63879e+00
381.000      4.27795e+00
382.000      5.24253e+00
383.000      6.48823e+00
384.000      7.95313e+00
385.000      9.56328e+00
386.000      1.12381e+01
387.000      1.28945e+01
388.000      1.44488e+01
389.000      1.58174e+01
390.000      1.69164e+01
391.000      1.76641e+01
392.000      1.79876e+01
393.000      1.78338e+01
394.000      1.71816e+01
395.000      1.60531e+01
396.000      1.45170e+01
397.000      1.26839e+01
398.000      1.06924e+01
399.000      8.68921e+00
400.000      6.80856e+00
401.000      5.15547e+00
402.000      3.79554e+00
403.000      2.75286e+00
404.000      2.01461e+00
405.000      1.54004e+00
406.000      1.27129e+00
407.000      1.14406e+00
408.000      1.09677e+00
409.000      1.07763e+00
410.000      1.04928e+00
411.000      9.90617e-01
412.000      8.95842e-01
413.000      7.71164e-01
414.000      6.29929e-01
415.000      4.87527e-01
416.000      3.57224e-01
417.000      2.47717e-01
418.000      1.62542e-01
419.000      1.00909e-01
420.000      5.92697e-02
421.000      3.29354e-02
422.000      1.73147e-02
423.000      8.61165e-03
424.000      4.05207e-03
425.000      1.80379e-03
426.000      7.59648e-04
427.000      3.02661e-04
428.000      1.14083e-04
429.000      4.06817e-05
430.000      1.37245e-05
431.000      4.38038e-06
432.000      1.32265e-06
433.000      3.77828e-07
434.000      1.02109e-07
435.000      2.61065e-08
436.000      6.31468e-09
437.000      1.44501e-09
438.000      3.12831e-10
439.000      6.40717e-11
440.000      1.24148e-11
441.000      2.27578e-12
442.000      3.94675e-13
443.000      6.47539e-14
444.000      1.00510e-14
445.000      1.47595e-15
446.000      2.05045e-16
447.000      2.69493e-17
448.000      3.35090e-18
449.000      3.94179e-19
450.000      4.38675e-20
451.000      4.61859e-21
452.000      4.60039e-22
453.000      4.33508e-23
454.000      3.86471e-24
455.000      3.25952e-25
456.000      2.60081e-26
457.000      1.96328e-27
458.000      1.40208e-28
459.000      9.47284e-30
460.000      6.05488e-31
461.000      3.66141e-32
462.000      2.09464e-33
463.000      1.13367e-34
464.000      5.80475e-36
465.000      2.81188e-37
466.000      1.28863e-38
467.000      5.58698e-40
468.000      2.29162e-41
469.000      8.89257e-43
470.000      3.26459e-44
471.000      1.13383e-45
472.000      3.72550e-47
473.000      1.15808e-48
474.000      3.40574e-50
475.000      9.47546e-52
476.000      2.49406e-53
477.000      6.21058e-55
478.000      1.46310e-56
479.000      3.26088e-58
480.000      6.87562e-60
481.000      1.37154e-61
482.000      2.58833e-63
483.000      4.62115e-65
484.000      7.80545e-67
485.000      1.24728e-68
486.000      1.88559e-70
487.000      2.69679e-72
488.000      3.64893e-74
489.000      4.67091e-76
490.000      5.65660e-78
491.000      6.48077e-80
492.000      7.02449e-82
493.000      7.20313e-84
494.000      6.98788e-86
495.000      6.41338e-88
496.000      5.56860e-90
497.000      4.57428e-92
498.000      3.55482e-94
499.000      2.61354e-96
500.000      1.81785e-98
