# Gaussian folded, width=10 cm^-1
# [cm^-1] arbitrary
0.000      3.00000e+00
1.000      2.91796e+00
2.000      2.68508e+00
3.000      2.33749e+00
4.000      1.92514e+00
5.000      1.50000e+00
6.000      1.10570e+00
7.000      7.71085e-01
8.000      5.08727e-01
9.000      3.17530e-01
10.000      1.87502e-01
11.000      1.04752e-01
12.000      5.53806e-02
13.000      2.77472e-02
14.000      1.32947e-02
15.000      6.42728e-03
16.000      3.99535e-03
17.000      4.81721e-03
18.000      9.51267e-03
19.000      2.07977e-02
20.000      4.42794e-02
21.000      8.96459e-02
22.000      1.71920e-01
23.000      3.12122e-01
24.000      5.36400e-01
25.000      8.72603e-01
26.000      1.34373e+00
27.000      1.95875e+00
28.000      2.70287e+00
29.000      3.53062e+00
30.000      4.36581e+00
31.000      5.11056e+00
32.000      5.66329e+00
33.000      5.94116e+00
34.000      5.90038e+00
35.000      5.54762e+00
36.000      4.93824e+00
37.000      4.16231e+00
38.000      3.32327e+00
39.000      2.51648e+00
40.000      1.81405e+00
41.000      1.25917e+00
42.000      8.69588e-01
43.000      6.46773e-01
44.000      5.86403e-01
45.000      6.86089e-01
46.000      9.47778e-01
47.000      1.37413e+00
48.000      1.96012e+00
49.000      2.68277e+00
50.000      3.49323e+00
51.000      4.31528e+00
52.000      5.05284e+00
53.000      5.60633e+00
54.000      5.89376e+00
55.000      5.87028e+00
56.000      5.53952e+00
57.000      4.95280e+00
58.000      4.19631e+00
59.000      3.37106e+00
60.000      2.57223e+00
61.000      1.87407e+00
62.000      1.32389e+00
63.000      9.44722e-01
64.000      7.43589e-01
65.000      7.20860e-01
66.000      8.76602e-01
67.000      1.21145e+00
68.000      1.72176e+00
69.000      2.39107e+00
70.000      3.18186e+00
71.000      4.03214e+00
72.000      4.86072e+00
73.000      5.58191e+00
74.000      6.12686e+00
75.000      6.46495e+00
76.000      6.61746e+00
77.000      6.65731e+00
78.000      6.69358e+00
79.000      6.84496e+00
80.000      7.21070e+00
81.000      7.84850e+00
82.000      8.76558e+00
83.000      9.92378e+00
84.000      1.12540e+01
85.000      1.26726e+01
86.000      1.40923e+01
87.000      1.54264e+01
88.000      1.65876e+01
89.000      1.74879e+01
90.000      1.80449e+01
91.000      1.81942e+01
92.000      1.79075e+01
93.000      1.72053e+01
94.000      1.61597e+01
95.000      1.48840e+01
96.000      1.35104e+01
97.000      1.21658e+01
98.000      1.09518e+01
99.000      9.93715e+00
100.000      9.16271e+00
101.000      8.65297e+00
102.000      8.42846e+00
103.000      8.51159e+00
104.000      8.92410e+00
105.000      9.67806e+00
106.000      1.07656e+01
107.000      1.21519e+01
108.000      1.37740e+01
109.000      1.55446e+01
110.000      1.73582e+01
111.000      1.90983e+01
112.000      2.06450e+01
113.000      2.18855e+01
114.000      2.27273e+01
115.000      2.31144e+01
116.000      2.30414e+01
117.000      2.25605e+01
118.000      2.17770e+01
119.000      2.08314e+01
120.000      1.98727e+01
121.000      1.90288e+01
122.000      1.83824e+01
123.000      1.79592e+01
124.000      1.77285e+01
125.000      1.76162e+01
126.000      1.75255e+01
127.000      1.73581e+01
128.000      1.70334e+01
129.000      1.65015e+01
130.000      1.57490e+01
131.000      1.47973e+01
132.000      1.36951e+01
133.000      1.25073e+01
134.000      1.13027e+01
135.000      1.01436e+01
136.000      9.07761e+00
137.000      8.13541e+00
138.000      7.33037e+00
139.000      6.66117e+00
140.000      6.11445e+00
141.000      5.66721e+00
142.000      5.28900e+00
143.000      4.94485e+00
144.000      4.59969e+00
145.000      4.22423e+00
146.000      3.80074e+00
147.000      3.32696e+00
148.000      2.81642e+00
149.000      2.29463e+00
150.000      1.79241e+00
151.000      1.33843e+00
152.000      9.53280e-01
153.000      6.46523e-01
154.000      4.17050e-01
155.000      2.55792e-01
156.000      1.49485e-01
157.000      8.42360e-02
158.000      4.81449e-02
159.000      3.28365e-02
160.000      3.41384e-02
161.000      5.22765e-02
162.000      9.18477e-02
163.000      1.61602e-01
164.000      2.73861e-01
165.000      4.43314e-01
166.000      6.85059e-01
167.000      1.01204e+00
168.000      1.43237e+00
169.000      1.94726e+00
170.000      2.55019e+00
171.000      3.22742e+00
172.000      3.95971e+00
173.000      4.72461e+00
174.000      5.49874e+00
175.000      6.26018e+00
176.000      6.99104e+00
177.000      7.68037e+00
178.000      8.32664e+00
179.000      8.93866e+00
180.000      9.53347e+00
181.000      1.01308e+01
182.000      1.07459e+01
183.000      1.13824e+01
184.000      1.20299e+01
185.000      1.26654e+01
186.000      1.32601e+01
187.000      1.37872e+01
188.000      1.42285e+01
189.000      1.45782e+01
190.000      1.48421e+01
191.000      1.50343e+01
192.000      1.51726e+01
193.000      1.52753e+01
194.000      1.53588e+01
195.000      1.54380e+01
196.000      1.55275e+01
197.000      1.56441e+01
198.000      1.58082e+01
199.000      1.60436e+01
200.000      1.63751e+01
201.000      1.68228e+01
202.000      1.73948e+01
203.000      1.80805e+01
204.000      1.88458e+01
205.000      1.96342e+01
206.000      2.03736e+01
207.000      2.09878e+01
208.000      2.14110e+01
209.000      2.16003e+01
210.000      2.15429e+01
211.000      2.12570e+01
212.000      2.07862e+01
213.000      2.01911e+01
214.000      1.95410e+01
215.000      1.89073e+01
216.000      1.83595e+01
217.000      1.79600e+01
218.000      1.77585e+01
219.000      1.77839e+01
220.000      1.80368e+01
221.000      1.84866e+01
222.000      1.90750e+01
223.000      1.97282e+01
224.000      2.03737e+01
225.000      2.09574e+01
226.000      2.14552e+01
227.000      2.18761e+01
228.000      2.22536e+01
229.000      2.26310e+01
230.000      2.30417e+01
231.000      2.34931e+01
232.000      2.39569e+01
233.000      2.43712e+01
234.000      2.46528e+01
235.000      2.47172e+01
236.000      2.45012e+01
237.000      2.39815e+01
238.000      2.31836e+01
239.000      2.21810e+01
240.000      2.10833e+01
241.000      2.00196e+01
242.000      1.91200e+01
243.000      1.84992e+01
244.000      1.82445e+01
245.000      1.84058e+01
246.000      1.89892e+01
247.000      1.99525e+01
248.000      2.12033e+01
249.000      2.26027e+01
250.000      2.39759e+01
251.000      2.51313e+01
252.000      2.58861e+01
253.000      2.60946e+01
254.000      2.56731e+01
255.000      2.46139e+01
256.000      2.29861e+01
257.000      2.09198e+01
258.000      1.85809e+01
259.000      1.61414e+01
260.000      1.37537e+01
261.000      1.15353e+01
262.000      9.56325e+00
263.000      7.87868e+00
264.000      6.49502e+00
265.000      5.40724e+00
266.000      4.59887e+00
267.000      4.04600e+00
268.000      3.71874e+00
269.000      3.58118e+00
270.000      3.59105e+00
271.000      3.69994e+00
272.000      3.85503e+00
273.000      4.00268e+00
274.000      4.09393e+00
275.000      4.09081e+00
276.000      3.97223e+00
277.000      3.73740e+00
278.000      3.40573e+00
279.000      3.01251e+00
280.000      2.60134e+00
281.000      2.21485e+00
282.000      1.88601e+00
283.000      1.63220e+00
284.000      1.45327e+00
285.000      1.33406e+00
286.000      1.25028e+00
287.000      1.17597e+00
288.000      1.09037e+00
289.000      9.82272e-01
290.000      8.51022e-01
291.000      7.04456e-01
292.000      5.54933e-01
293.000      4.15074e-01
294.000      2.94542e-01
295.000      1.98554e-01
296.000      1.28081e-01
297.000      8.12091e-02
298.000      5.49541e-02
299.000      4.69510e-02
300.000      5.66578e-02
301.000      8.59271e-02
302.000      1.38905e-01
303.000      2.21274e-01
304.000      3.38932e-01
305.000      4.96325e-01
306.000      6.94836e-01
307.000      9.31766e-01
308.000      1.20037e+00
309.000      1.49110e+00
310.000      1.79386e+00
311.000      2.10038e+00
312.000      2.40594e+00
313.000      2.70962e+00
314.000      3.01292e+00
315.000      3.31741e+00
316.000      3.62241e+00
317.000      3.92399e+00
318.000      4.21588e+00
319.000      4.49225e+00
320.000      4.75154e+00
321.000      4.99992e+00
322.000      5.25340e+00
323.000      5.53773e+00
324.000      5.88631e+00
325.000      6.33625e+00
326.000      6.92335e+00
327.000      7.67633e+00
328.000      8.61090e+00
329.000      9.72436e+00
330.000      1.09919e+01
331.000      1.23659e+01
332.000      1.37789e+01
333.000      1.51507e+01
334.000      1.63979e+01
335.000      1.74436e+01
336.000      1.82249e+01
337.000      1.86970e+01
338.000      1.88352e+01
339.000      1.86343e+01
340.000      1.81086e+01
341.000      1.72915e+01
342.000      1.62342e+01
343.000      1.50008e+01
344.000      1.36608e+01
345.000      1.22793e+01
346.000      1.09086e+01
347.000      9.58458e+00
348.000      8.32970e+00
349.000      7.16049e+00
350.000      6.09658e+00
351.000      5.16658e+00
352.000      4.40770e+00
353.000      3.85879e+00
354.000      3.54889e+00
355.000      3.48552e+00
356.000      3.64687e+00
357.000      3.98105e+00
358.000      4.41323e+00
359.000      4.85932e+00
360.000      5.24254e+00
361.000      5.50844e+00
362.000      5.63407e+00
363.000      5.62880e+00
364.000      5.52693e+00
365.000      5.37477e+00
366.000      5.21640e+00
367.000      5.08248e+00
368.000      4.98477e+00
369.000      4.91685e+00
370.000      4.85964e+00
371.000      4.78887e+00
372.000      4.68219e+00
373.000      4.52434e+00
374.000      4.30998e+00
375.000      4.04468e+00
376.000      3.74459e+00
377.000      3.43506e+00
378.000      3.14770e+00
379.000      2.91592e+00
380.000      2.76907e+00
381.000      2.72608e+00
382.000      2.79013e+00
383.000      2.94571e+00
384.000      3.15922e+00
385.000      3.38337e+00
386.000      3.56498e+00
387.000      3.65482e+00
388.000      3.61738e+00
389.000      3.43825e+00
390.000      3.12692e+00
391.000      2.71408e+00
392.000      2.24417e+00
393.000      1.76530e+00
394.000      1.31966e+00
395.000      9.36768e-01
396.000      6.31044e-01
397.000      4.03208e-01
398.000      2.44272e-01
399.000      1.40268e-01
400.000      7.63275e-02
401.000      3.93511e-02
402.000      1.92185e-02
403.000      8.89032e-03
404.000      3.89500e-03
405.000      1.61605e-03
406.000      6.34938e-04
407.000      2.36218e-04
408.000      8.32113e-05
409.000      2.77536e-05
410.000      8.76419e-06
411.000      2.62026e-06
412.000      7.41662e-07
413.000      1.98740e-07
414.000      5.04165e-08
415.000      1.21076e-08
416.000      2.75253e-09
417.000      5.92362e-10
418.000      1.20674e-10
419.000      2.32703e-11
420.000      4.24762e-12
421.000      7.33901e-13
422.000      1.20024e-13
423.000      1.85794e-14
424.000      2.72220e-15
425.000      3.77507e-16
426.000      4.95496e-17
427.000      6.15545e-18
428.000      7.23730e-19
429.000      8.05348e-20
430.000      8.48154e-21
431.000      8.45363e-22
432.000      7.97415e-23
433.000      7.11855e-24
434.000      6.01394e-25
435.000      4.80819e-26
436.000      3.63792e-27
437.000      2.60478e-28
438.000      1.76493e-29
439.000      1.13166e-30
440.000      6.86655e-32
441.000      3.94262e-33
442.000      2.14216e-34
443.000      1.10138e-35
444.000      5.35841e-37
445.000      2.46685e-38
446.000      1.07462e-39
447.000      4.42966e-41
448.000      1.72776e-42
449.000      6.37665e-44
450.000      2.22686e-45
451.000      7.35838e-47
452.000      2.30069e-48
453.000      6.80638e-50
454.000      1.90526e-51
455.000      5.04629e-53
456.000      1.26463e-54
457.000      2.99867e-56
458.000      6.72768e-58
459.000      1.42814e-59
460.000      2.86841e-61
461.000      5.45099e-63
462.000      9.80107e-65
463.000      1.66737e-66
464.000      2.68379e-68
465.000      4.08717e-70
466.000      5.88915e-72
467.000      8.02853e-74
468.000      1.03555e-75
469.000      1.26374e-77
470.000      1.45913e-79
471.000      1.59397e-81
472.000      1.64745e-83
473.000      1.61097e-85
474.000      1.49043e-87
475.000      1.30460e-89
476.000      1.08040e-91
477.000      8.46514e-94
478.000      6.27515e-96
479.000      4.40102e-98
480.000     2.92026e-100
481.000     1.83327e-102
482.000     1.08886e-104
483.000     6.11856e-107
484.000     3.25285e-109
485.000     1.63611e-111
486.000     7.78566e-114
487.000     3.50519e-116
488.000     1.49300e-118
489.000     6.01647e-121
490.000     2.29379e-123
491.000     8.27366e-126
492.000     2.82339e-128
493.000     9.11539e-131
494.000     2.78425e-133
495.000     8.04582e-136
496.000     2.19969e-138
497.000     5.68957e-141
498.000     1.39228e-143
499.000     3.22328e-146
500.000     7.05989e-149
