# Gaussian folded, width=10 cm^-1
# [cm^-1] arbitrary
0.000      3.00000e+00
1.000      2.91796e+00
2.000      2.68508e+00
3.000      2.33749e+00
4.000      1.92514e+00
5.000      1.50000e+00
6.000      1.10570e+00
7.000      7.71085e-01
8.000      5.08727e-01
9.000      3.17529e-01
10.000      1.87500e-01
11.000      1.04746e-01
12.000      5.53594e-02
13.000      2.76808e-02
14.000      1.30978e-02
15.000      5.87477e-03
16.000      2.52980e-03
17.000      1.14181e-03
18.000      8.00041e-04
19.000      1.28083e-03
20.000      2.98070e-03
21.000      7.13151e-03
22.000      1.63425e-02
23.000      3.55106e-02
24.000      7.30657e-02
25.000      1.42334e-01
26.000      2.62504e-01
27.000      4.58344e-01
28.000      7.57666e-01
29.000      1.18575e+00
30.000      1.75685e+00
31.000      2.46437e+00
32.000      3.27269e+00
33.000      4.11460e+00
34.000      4.89751e+00
35.000      5.51880e+00
36.000      5.88754e+00
37.000      5.94622e+00
38.000      5.68544e+00
39.000      5.14635e+00
40.000      4.41008e+00
41.000      3.57769e+00
42.000      2.74773e+00
43.000      1.99800e+00
44.000      1.37596e+00
45.000      8.98577e-01
46.000      5.59243e-01
47.000      3.38002e-01
48.000      2.11690e-01
49.000      1.61832e-01
50.000      1.79512e-01
51.000      2.67298e-01
52.000      4.38451e-01
53.000      7.13432e-01
54.000      1.11360e+00
55.000      1.65244e+00
56.000      2.32568e+00
57.000      3.10291e+00
58.000      3.92414e+00
59.000      4.70420e+00
60.000      5.34584e+00
61.000      5.75914e+00
62.000      5.88212e+00
63.000      5.69599e+00
64.000      5.22986e+00
65.000      4.55345e+00
66.000      3.76031e+00
67.000      2.94732e+00
68.000      2.19697e+00
69.000      1.56699e+00
70.000      1.08891e+00
71.000      7.73896e-01
72.000      6.22181e-01
73.000      6.32007e-01
74.000      8.04741e-01
75.000      1.14433e+00
76.000      1.65120e+00
77.000      2.31256e+00
78.000      3.09289e+00
79.000      3.92894e+00
80.000      4.73320e+00
81.000      5.40721e+00
82.000      5.86258e+00
83.000      6.04413e+00
84.000      5.94784e+00
85.000      5.62728e+00
86.000      5.18577e+00
87.000      4.75604e+00
88.000      4.47322e+00
89.000      4.44816e+00
90.000      4.74773e+00
91.000      5.38600e+00
92.000      6.32716e+00
93.000      7.49794e+00
94.000      8.80543e+00
95.000      1.01550e+01
96.000      1.14638e+01
97.000      1.26668e+01
98.000      1.37161e+01
99.000      1.45757e+01
100.000      1.52153e+01
101.000      1.56066e+01
102.000      1.57231e+01
103.000      1.55440e+01
104.000      1.50605e+01
105.000      1.42829e+01
106.000      1.32466e+01
107.000      1.20151e+01
108.000      1.06779e+01
109.000      9.34125e+00
110.000      8.11376e+00
111.000      7.08907e+00
112.000      6.33172e+00
113.000      5.87082e+00
114.000      5.70415e+00
115.000      5.81118e+00
116.000      6.16981e+00
117.000      6.76996e+00
118.000      7.61819e+00
119.000      8.73140e+00
120.000      1.01216e+01
121.000      1.17776e+01
122.000      1.36506e+01
123.000      1.56505e+01
124.000      1.76528e+01
125.000      1.95179e+01
126.000      2.11134e+01
127.000      2.23356e+01
128.000      2.31217e+01
129.000      2.34515e+01
130.000      2.33388e+01
131.000      2.28188e+01
132.000      2.19360e+01
133.000      2.07380e+01
134.000      1.92771e+01
135.000      1.76158e+01
136.000      1.58337e+01
137.000      1.40288e+01
138.000      1.23132e+01
139.000      1.08006e+01
140.000      9.59198e+00
141.000      8.76021e+00
142.000      8.34030e+00
143.000      8.32591e+00
144.000      8.67271e+00
145.000      9.30665e+00
146.000      1.01343e+01
147.000      1.10529e+01
148.000      1.19580e+01
149.000      1.27503e+01
150.000      1.33418e+01
151.000      1.36625e+01
152.000      1.36691e+01
153.000      1.33521e+01
154.000      1.27398e+01
155.000      1.18954e+01
156.000      1.09066e+01
157.000      9.86880e+00
158.000      8.86716e+00
159.000      7.96123e+00
160.000      7.17763e+00
161.000      6.51139e+00
162.000      5.93451e+00
163.000      5.40844e+00
164.000      4.89628e+00
165.000      4.37188e+00
166.000      3.82442e+00
167.000      3.25857e+00
168.000      2.69105e+00
169.000      2.14525e+00
170.000      1.64520e+00
171.000      1.21032e+00
172.000      8.52099e-01
173.000      5.72984e-01
174.000      3.67522e-01
175.000      2.24891e-01
176.000      1.31985e-01
177.000      7.62053e-02
178.000      4.75123e-02
179.000      3.96887e-02
180.000      5.09839e-02
181.000      8.43804e-02
182.000      1.47575e-01
183.000      2.52565e-01
184.000      4.14559e-01
185.000      6.49972e-01
186.000      9.73459e-01
187.000      1.39442e+00
188.000      1.91374e+00
189.000      2.52193e+00
190.000      3.19932e+00
191.000      3.91861e+00
192.000      4.64893e+00
193.000      5.36016e+00
194.000      6.02590e+00
195.000      6.62455e+00
196.000      7.13876e+00
197.000      7.55452e+00
198.000      7.86129e+00
199.000      8.05382e+00
200.000      8.13499e+00
201.000      8.11843e+00
202.000      8.02901e+00
203.000      7.90058e+00
204.000      7.77102e+00
205.000      7.67602e+00
206.000      7.64332e+00
207.000      7.68867e+00
208.000      7.81426e+00
209.000      8.00950e+00
210.000      8.25352e+00
211.000      8.51877e+00
212.000      8.77526e+00
213.000      8.99480e+00
214.000      9.15495e+00
215.000      9.24177e+00
216.000      9.25094e+00
217.000      9.18709e+00
218.000      9.06185e+00
219.000      8.89179e+00
220.000      8.69716e+00
221.000      8.50164e+00
222.000      8.33243e+00
223.000      8.21953e+00
224.000      8.19325e+00
225.000      8.27978e+00
226.000      8.49578e+00
227.000      8.84305e+00
228.000      9.30467e+00
229.000      9.84373e+00
230.000      1.04051e+01
231.000      1.09210e+01
232.000      1.13203e+01
233.000      1.15397e+01
234.000      1.15358e+01
235.000      1.12944e+01
236.000      1.08338e+01
237.000      1.02016e+01
238.000      9.46524e+00
239.000      8.69891e+00
240.000      7.97059e+00
241.000      7.33288e+00
242.000      6.81898e+00
243.000      6.44371e+00
244.000      6.20746e+00
245.000      6.10042e+00
246.000      6.10520e+00
247.000      6.19725e+00
248.000      6.34434e+00
249.000      6.50693e+00
250.000      6.64122e+00
251.000      6.70500e+00
252.000      6.66500e+00
253.000      6.50329e+00
254.000      6.22017e+00
255.000      5.83268e+00
256.000      5.36927e+00
257.000      4.86298e+00
258.000      4.34526e+00
259.000      3.84218e+00
260.000      3.37293e+00
261.000      2.94969e+00
262.000      2.57794e+00
263.000      2.25671e+00
264.000      1.97927e+00
265.000      1.73482e+00
266.000      1.51129e+00
267.000      1.29871e+00
268.000      1.09177e+00
269.000      8.90785e-01
270.000      7.00676e-01
271.000      5.28502e-01
272.000      3.80733e-01
273.000      2.61207e-01
274.000      1.70322e-01
275.000      1.05433e-01
276.000      6.19779e-02
277.000      3.47901e-02
278.000      1.91775e-02
279.000      1.16258e-02
280.000      1.01740e-02
281.000      1.46313e-02
282.000      2.67938e-02
283.000      5.07327e-02
284.000      9.30971e-02
285.000      1.63244e-01
286.000      2.72927e-01
287.000      4.35300e-01
288.000      6.63109e-01
289.000      9.66258e-01
290.000      1.34916e+00
291.000      1.80858e+00
292.000      2.33260e+00
293.000      2.90116e+00
294.000      3.48831e+00
295.000      4.06577e+00
296.000      4.60733e+00
297.000      5.09342e+00
298.000      5.51502e+00
299.000      5.87612e+00
300.000      6.19382e+00
301.000      6.49542e+00
302.000      6.81244e+00
303.000      7.17265e+00
304.000      7.59206e+00
305.000      8.06950e+00
306.000      8.58568e+00
307.000      9.10733e+00
308.000      9.59538e+00
309.000      1.00146e+01
310.000      1.03419e+01
311.000      1.05714e+01
312.000      1.07148e+01
313.000      1.07985e+01
314.000      1.08576e+01
315.000      1.09294e+01
316.000      1.10476e+01
317.000      1.12387e+01
318.000      1.15208e+01
319.000      1.19052e+01
320.000      1.24002e+01
321.000      1.30155e+01
322.000      1.37669e+01
323.000      1.46777e+01
324.000      1.57779e+01
325.000      1.70991e+01
326.000      1.86654e+01
327.000      2.04837e+01
328.000      2.25327e+01
329.000      2.47568e+01
330.000      2.70643e+01
331.000      2.93341e+01
332.000      3.14300e+01
333.000      3.32200e+01
334.000      3.45984e+01
335.000      3.55045e+01
336.000      3.59349e+01
337.000      3.59457e+01
338.000      3.56431e+01
339.000      3.51649e+01
340.000      3.46557e+01
341.000      3.42405e+01
342.000      3.40023e+01
343.000      3.39675e+01
344.000      3.41021e+01
345.000      3.43189e+01
346.000      3.44946e+01
347.000      3.44920e+01
348.000      3.41836e+01
349.000      3.34706e+01
350.000      3.22973e+01
351.000      3.06566e+01
352.000      2.85900e+01
353.000      2.61819e+01
354.000      2.35497e+01
355.000      2.08312e+01
356.000      1.81693e+01
357.000      1.56953e+01
358.000      1.35137e+01
359.000      1.16919e+01
360.000      1.02556e+01
361.000      9.19205e+00
362.000      8.45926e+00
363.000      7.99835e+00
364.000      7.74458e+00
365.000      7.63475e+00
366.000      7.60975e+00
367.000      7.61382e+00
368.000      7.59326e+00
369.000      7.49754e+00
370.000      7.28412e+00
371.000      6.92640e+00
372.000      6.42205e+00
373.000      5.79843e+00
374.000      5.11249e+00
375.000      4.44441e+00
376.000      3.88642e+00
377.000      3.52953e+00
378.000      3.45121e+00
379.000      3.70613e+00
380.000      4.32058e+00
381.000      5.29031e+00
382.000      6.58089e+00
383.000      8.13036e+00
384.000      9.85389e+00
385.000      1.16507e+01
386.000      1.34130e+01
387.000      1.50355e+01
388.000      1.64245e+01
389.000      1.75039e+01
390.000      1.82183e+01
391.000      1.85324e+01
392.000      1.84295e+01
393.000      1.79105e+01
394.000      1.69944e+01
395.000      1.57208e+01
396.000      1.41523e+01
397.000      1.23746e+01
398.000      1.04912e+01
399.000      8.61443e+00
400.000      6.85148e+00
401.000      5.29128e+00
402.000      3.99365e+00
403.000      2.98392e+00
404.000      2.25367e+00
405.000      1.76683e+00
406.000      1.46923e+00
407.000      1.29959e+00
408.000      1.19984e+00
409.000      1.12301e+00
410.000      1.03794e+00
411.000      9.30128e-01
412.000      7.99246e-01
413.000      6.54457e-01
414.000      5.08951e-01
415.000      3.75217e-01
416.000      2.61989e-01
417.000      1.73164e-01
418.000      1.08315e-01
419.000      6.41077e-02
420.000      3.58997e-02
421.000      1.90200e-02
422.000      9.53366e-03
423.000      4.52099e-03
424.000      2.02828e-03
425.000      8.60882e-04
426.000      3.45682e-04
427.000      1.31319e-04
428.000      4.71953e-05
429.000      1.60467e-05
430.000      5.16168e-06
431.000      1.57078e-06
432.000      4.52225e-07
433.000      1.23172e-07
434.000      3.17387e-08
435.000      7.73717e-09
436.000      1.78440e-09
437.000      3.89333e-10
438.000      8.03651e-11
439.000      1.56939e-11
440.000      2.89943e-12
441.000      5.06771e-13
442.000      8.37969e-14
443.000      1.31088e-14
444.000      1.94005e-15
445.000      2.71633e-16
446.000      3.59808e-17
447.000      4.50894e-18
448.000      5.34561e-19
449.000      5.99566e-20
450.000      6.36201e-21
451.000      6.38659e-22
452.000      6.06543e-23
453.000      5.44969e-24
454.000      4.63233e-25
455.000      3.72516e-26
456.000      2.83405e-27
457.000      2.03980e-28
458.000      1.38895e-29
459.000      8.94751e-31
460.000      5.45300e-32
461.000      3.14403e-33
462.000      1.71496e-34
463.000      8.84996e-36
464.000      4.32061e-37
465.000      1.99557e-38
466.000      8.71977e-40
467.000      3.60464e-41
468.000      1.40973e-42
469.000      5.21588e-44
470.000      1.82573e-45
471.000      6.04594e-47
472.000      1.89412e-48
473.000      5.61398e-50
474.000      1.57417e-51
475.000      4.17588e-53
476.000      1.04800e-54
477.000      2.48826e-56
478.000      5.58915e-58
479.000      1.18772e-59
480.000      2.38780e-61
481.000      4.54152e-63
482.000      8.17188e-65
483.000      1.39111e-66
484.000      2.24035e-68
485.000      3.41342e-70
486.000      4.92017e-72
487.000      6.70948e-74
488.000      8.65596e-76
489.000      1.05647e-77
490.000      1.21989e-79
491.000      1.33260e-81
492.000      1.37720e-83
493.000      1.34651e-85
494.000      1.24549e-87
495.000      1.08991e-89
496.000      9.02314e-92
497.000      7.06712e-94
498.000      5.23654e-96
499.000      3.67083e-98
500.000     2.43445e-100
