# Gaussian folded, width=10 cm^-1
# [cm^-1] arbitrary
0.000      3.00000e+00
1.000      2.91796e+00
2.000      2.68508e+00
3.000      2.33749e+00
4.000      1.92514e+00
5.000      1.50000e+00
6.000      1.10570e+00
7.000      7.71085e-01
8.000      5.08727e-01
9.000      3.17530e-01
10.000      1.87500e-01
11.000      1.04747e-01
12.000      5.53626e-02
13.000      2.76917e-02
14.000      1.31323e-02
15.000      5.97862e-03
16.000      2.82489e-03
17.000      1.93419e-03
18.000      2.80998e-03
19.000      6.09566e-03
20.000      1.38690e-02
21.000      3.03660e-02
22.000      6.31004e-02
23.000      1.24193e-01
24.000      2.31449e-01
25.000      4.08408e-01
26.000      6.82371e-01
27.000      1.07954e+00
28.000      1.61716e+00
29.000      2.29389e+00
30.000      3.08108e+00
31.000      3.91877e+00
32.000      4.71973e+00
33.000      5.38287e+00
34.000      5.81356e+00
35.000      5.94579e+00
36.000      5.75864e+00
37.000      5.28178e+00
38.000      4.58775e+00
39.000      3.77399e+00
40.000      2.94072e+00
41.000      2.17160e+00
42.000      1.52242e+00
43.000      1.01923e+00
44.000      6.64268e-01
45.000      4.46310e-01
46.000      3.51317e-01
47.000      3.70652e-01
48.000      5.05058e-01
49.000      7.63839e-01
50.000      1.15947e+00
51.000      1.69873e+00
52.000      2.37240e+00
53.000      3.14671e+00
54.000      3.95986e+00
55.000      4.72652e+00
56.000      5.35089e+00
57.000      5.74575e+00
58.000      5.85224e+00
59.000      5.65428e+00
60.000      5.18258e+00
61.000      4.50703e+00
62.000      3.72019e+00
63.000      2.91741e+00
64.000      2.17989e+00
65.000      1.56503e+00
66.000      1.10524e+00
67.000      8.13639e-01
68.000      6.92836e-01
69.000      7.42747e-01
70.000      9.64368e-01
71.000      1.35803e+00
72.000      1.91680e+00
73.000      2.61768e+00
74.000      3.41453e+00
75.000      4.23703e+00
76.000      4.99840e+00
77.000      5.61187e+00
78.000      6.01222e+00
79.000      6.17599e+00
80.000      6.13331e+00
81.000      5.96620e+00
82.000      5.79268e+00
83.000      5.74056e+00
84.000      5.91858e+00
85.000      6.39297e+00
86.000      7.17612e+00
87.000      8.22924e+00
88.000      9.47666e+00
89.000      1.08256e+01
90.000      1.21839e+01
91.000      1.34713e+01
92.000      1.46207e+01
93.000      1.55742e+01
94.000      1.62776e+01
95.000      1.66789e+01
96.000      1.67335e+01
97.000      1.64160e+01
98.000      1.57325e+01
99.000      1.47297e+01
100.000      1.34955e+01
101.000      1.21483e+01
102.000      1.08192e+01
103.000      9.62929e+00
104.000      8.66980e+00
105.000      7.99137e+00
106.000      7.60446e+00
107.000      7.49087e+00
108.000      7.62143e+00
109.000      7.97297e+00
110.000      8.53853e+00
111.000      9.32736e+00
112.000      1.03553e+01
113.000      1.16293e+01
114.000      1.31323e+01
115.000      1.48130e+01
116.000      1.65835e+01
117.000      1.83268e+01
118.000      1.99121e+01
119.000      2.12136e+01
120.000      2.21301e+01
121.000      2.25998e+01
122.000      2.26076e+01
123.000      2.21843e+01
124.000      2.13982e+01
125.000      2.03422e+01
126.000      1.91211e+01
127.000      1.78400e+01
128.000      1.65953e+01
129.000      1.54687e+01
130.000      1.45211e+01
131.000      1.37888e+01
132.000      1.32811e+01
133.000      1.29809e+01
134.000      1.28500e+01
135.000      1.28373e+01
136.000      1.28875e+01
137.000      1.29493e+01
138.000      1.29794e+01
139.000      1.29436e+01
140.000      1.28164e+01
141.000      1.25798e+01
142.000      1.22243e+01
143.000      1.17506e+01
144.000      1.11717e+01
145.000      1.05130e+01
146.000      9.80862e+00
147.000      9.09571e+00
148.000      8.40678e+00
149.000      7.76311e+00
150.000      7.17120e+00
151.000      6.62311e+00
152.000      6.10054e+00
153.000      5.58121e+00
154.000      5.04565e+00
155.000      4.48279e+00
156.000      3.89305e+00
157.000      3.28847e+00
158.000      2.68998e+00
159.000      2.12274e+00
160.000      1.61069e+00
161.000      1.17190e+00
162.000      8.15722e-01
163.000      5.42290e-01
164.000      3.44148e-01
165.000      2.09169e-01
166.000      1.23837e-01
167.000      7.61149e-02
168.000      5.74985e-02
169.000      6.42291e-02
170.000      9.77827e-02
171.000      1.64745e-01
172.000      2.76032e-01
173.000      4.45318e-01
174.000      6.86604e-01
175.000      1.01118e+00
176.000      1.42460e+00
177.000      1.92464e+00
178.000      2.50119e+00
179.000      3.13840e+00
180.000      3.81869e+00
181.000      4.52727e+00
182.000      5.25525e+00
183.000      6.00016e+00
184.000      6.76317e+00
185.000      7.54416e+00
186.000      8.33637e+00
187.000      9.12293e+00
188.000      9.87694e+00
189.000      1.05656e+01
190.000      1.11569e+01
191.000      1.16278e+01
192.000      1.19694e+01
193.000      1.21892e+01
194.000      1.23089e+01
195.000      1.23583e+01
196.000      1.23687e+01
197.000      1.23669e+01
198.000      1.23727e+01
199.000      1.23991e+01
200.000      1.24540e+01
201.000      1.25424e+01
202.000      1.26661e+01
203.000      1.28216e+01
204.000      1.29975e+01
205.000      1.31731e+01
206.000      1.33214e+01
207.000      1.34148e+01
208.000      1.34340e+01
209.000      1.33742e+01
210.000      1.32480e+01
211.000      1.30812e+01
212.000      1.29056e+01
213.000      1.27504e+01
214.000      1.26362e+01
215.000      1.25748e+01
216.000      1.25728e+01
217.000      1.26382e+01
218.000      1.27844e+01
219.000      1.30315e+01
220.000      1.34022e+01
221.000      1.39148e+01
222.000      1.45760e+01
223.000      1.53763e+01
224.000      1.62890e+01
225.000      1.72728e+01
226.000      1.82769e+01
227.000      1.92461e+01
228.000      2.01244e+01
229.000      2.08582e+01
230.000      2.13977e+01
231.000      2.16993e+01
232.000      2.17291e+01
233.000      2.14674e+01
234.000      2.09133e+01
235.000      2.00875e+01
236.000      1.90327e+01
237.000      1.78103e+01
238.000      1.64944e+01
239.000      1.51644e+01
240.000      1.38987e+01
241.000      1.27699e+01
242.000      1.18429e+01
243.000      1.11733e+01
244.000      1.08046e+01
245.000      1.07630e+01
246.000      1.10484e+01
247.000      1.16253e+01
248.000      1.24176e+01
249.000      1.33101e+01
250.000      1.41608e+01
251.000      1.48223e+01
252.000      1.51676e+01
253.000      1.51140e+01
254.000      1.46391e+01
255.000      1.37824e+01
256.000      1.26347e+01
257.000      1.13166e+01
258.000      9.95395e+00
259.000      8.65511e+00
260.000      7.49702e+00
261.000      6.52015e+00
262.000      5.73221e+00
263.000      5.11716e+00
264.000      4.64598e+00
265.000      4.28595e+00
266.000      4.00690e+00
267.000      3.78386e+00
268.000      3.59675e+00
269.000      3.42861e+00
270.000      3.26369e+00
271.000      3.08676e+00
272.000      2.88422e+00
273.000      2.64641e+00
274.000      2.37031e+00
275.000      2.06105e+00
276.000      1.73154e+00
277.000      1.39994e+00
278.000      1.08569e+00
279.000      8.05582e-01
280.000      5.70738e-01
281.000      3.85487e-01
282.000      2.47949e-01
283.000      1.51848e-01
284.000      8.87837e-02
285.000      5.02801e-02
286.000      2.92525e-02
287.000      2.08468e-02
288.000      2.27982e-02
289.000      3.55157e-02
290.000      6.20196e-02
291.000      1.07725e-01
292.000      1.79952e-01
293.000      2.87017e-01
294.000      4.36837e-01
295.000      6.35182e-01
296.000      8.83923e-01
297.000      1.17977e+00
298.000      1.51394e+00
299.000      1.87309e+00
300.000      2.24122e+00
301.000      2.60234e+00
302.000      2.94305e+00
303.000      3.25453e+00
304.000      3.53347e+00
305.000      3.78187e+00
306.000      4.00595e+00
307.000      4.21485e+00
308.000      4.41961e+00
309.000      4.63293e+00
310.000      4.86951e+00
311.000      5.14627e+00
312.000      5.48136e+00
313.000      5.89122e+00
314.000      6.38587e+00
315.000      6.96355e+00
316.000      7.60719e+00
317.000      8.28456e+00
318.000      8.95376e+00
319.000      9.57323e+00
320.000      1.01142e+01
321.000      1.05719e+01
322.000      1.09714e+01
323.000      1.13662e+01
324.000      1.18283e+01
325.000      1.24326e+01
326.000      1.32400e+01
327.000      1.42827e+01
328.000      1.55568e+01
329.000      1.70230e+01
330.000      1.86145e+01
331.000      2.02496e+01
332.000      2.18457e+01
333.000      2.33331e+01
334.000      2.46638e+01
335.000      2.58161e+01
336.000      2.67927e+01
337.000      2.76139e+01
338.000      2.83055e+01
339.000      2.88855e+01
340.000      2.93526e+01
341.000      2.96788e+01
342.000      2.98101e+01
343.000      2.96752e+01
344.000      2.91997e+01
345.000      2.83249e+01
346.000      2.70248e+01
347.000      2.53186e+01
348.000      2.32744e+01
349.000      2.10031e+01
350.000      1.86429e+01
351.000      1.63388e+01
352.000      1.42202e+01
353.000      1.23834e+01
354.000      1.08820e+01
355.000      9.72640e+00
356.000      8.89188e+00
357.000      8.33084e+00
358.000      7.98576e+00
359.000      7.79937e+00
360.000      7.72013e+00
361.000      7.70357e+00
362.000      7.71078e+00
363.000      7.70654e+00
364.000      7.65846e+00
365.000      7.53844e+00
366.000      7.32594e+00
367.000      7.01205e+00
368.000      6.60293e+00
369.000      6.12111e+00
370.000      5.60377e+00
371.000      5.09805e+00
372.000      4.65386e+00
373.000      4.31605e+00
374.000      4.11757e+00
375.000      4.07542e+00
376.000      4.19044e+00
377.000      4.45044e+00
378.000      4.83549e+00
379.000      5.32314e+00
380.000      5.89180e+00
381.000      6.52134e+00
382.000      7.19098e+00
383.000      7.87608e+00
384.000      8.54539e+00
385.000      9.16038e+00
386.000      9.67739e+00
387.000      1.00523e+01
388.000      1.02463e+01
389.000      1.02320e+01
390.000      9.99699e+00
391.000      9.54648e+00
392.000      8.90213e+00
393.000      8.09959e+00
394.000      7.18415e+00
395.000      6.20587e+00
396.000      5.21475e+00
397.000      4.25652e+00
398.000      3.36931e+00
399.000      2.58150e+00
400.000      1.91053e+00
401.000      1.36286e+00
402.000      9.35028e-01
403.000      6.15699e-01
404.000      3.88360e-01
405.000      2.34234e-01
406.000      1.34875e-01
407.000      7.40419e-02
408.000      3.87061e-02
409.000      1.92486e-02
410.000      9.09858e-03
411.000      4.08503e-03
412.000      1.74104e-03
413.000      7.04051e-04
414.000      2.70025e-04
415.000      9.81886e-05
416.000      3.38418e-05
417.000      1.10529e-05
418.000      3.42017e-06
419.000      1.00251e-06
420.000      2.78316e-07
421.000      7.31715e-08
422.000      1.82160e-08
423.000      4.29372e-09
424.000      9.58177e-10
425.000      2.02423e-10
426.000      4.04805e-11
427.000      7.66272e-12
428.000      1.37293e-12
429.000      2.32820e-13
430.000      3.73668e-14
431.000      5.67578e-15
432.000      8.15881e-16
433.000      1.10988e-16
434.000      1.42878e-17
435.000      1.74052e-18
436.000      2.00636e-19
437.000      2.18851e-20
438.000      2.25885e-21
439.000      2.20608e-22
440.000      2.03864e-23
441.000      1.78255e-24
442.000      1.47475e-25
443.000      1.15442e-26
444.000      8.55020e-28
445.000      5.99170e-29
446.000      3.97266e-30
447.000      2.49211e-31
448.000      1.47912e-32
449.000      8.30594e-34
450.000      4.41285e-35
451.000      2.21816e-36
452.000      1.05489e-37
453.000      4.74638e-39
454.000      2.02047e-40
455.000      8.13728e-42
456.000      3.10056e-43
457.000      1.11772e-44
458.000      3.81203e-46
459.000      1.23001e-47
460.000      3.75485e-49
461.000      1.08443e-50
462.000      2.96306e-52
463.000      7.65958e-54
464.000      1.87324e-55
465.000      4.33420e-57
466.000      9.48740e-59
467.000      1.96476e-60
468.000      3.84941e-62
469.000      7.13513e-64
470.000      1.25121e-65
471.000      2.07579e-67
472.000      3.25804e-69
473.000      4.83783e-71
474.000      6.79619e-73
475.000      9.03235e-75
476.000      1.13568e-76
477.000      1.35093e-78
478.000      1.52029e-80
479.000      1.61861e-82
480.000      1.63033e-84
481.000      1.55357e-86
482.000      1.40057e-88
483.000      1.19453e-90
484.000      9.63843e-93
485.000      7.35759e-95
486.000      5.31354e-97
487.000      3.63037e-99
488.000     2.34658e-101
489.000     1.43496e-103
490.000     8.30160e-106
491.000     4.54362e-108
492.000     2.35267e-110
493.000     1.15249e-112
494.000     5.34111e-115
495.000     2.34177e-117
496.000     9.71350e-120
497.000     3.81175e-122
498.000     1.41511e-124
499.000     4.97023e-127
500.000     1.65150e-129
