# Gaussian folded, width=10 cm^-1
# [cm^-1] arbitrary
0.000      3.00000e+00
1.000      2.91796e+00
2.000      2.68508e+00
3.000      2.33749e+00
4.000      1.92514e+00
5.000      1.50000e+00
6.000      1.10570e+00
7.000      7.71085e-01
8.000      5.08727e-01
9.000      3.17530e-01
10.000      1.87502e-01
11.000      1.04752e-01
12.000      5.53810e-02
13.000      2.77483e-02
14.000      1.32977e-02
15.000      6.43464e-03
16.000      4.01253e-03
17.000      4.85484e-03
18.000      9.58987e-03
19.000      2.09458e-02
20.000      4.45441e-02
21.000      9.00855e-02
22.000      1.72594e-01
23.000      3.13071e-01
24.000      5.37608e-01
25.000      8.73962e-01
26.000      1.34501e+00
27.000      1.95962e+00
28.000      2.70291e+00
29.000      3.52949e+00
30.000      4.36331e+00
31.000      5.10681e+00
32.000      5.65869e+00
33.000      5.93636e+00
34.000      5.89616e+00
35.000      5.54464e+00
36.000      4.93689e+00
37.000      4.16267e+00
38.000      3.32509e+00
39.000      2.51937e+00
40.000      1.81763e+00
41.000      1.26324e+00
42.000      8.74216e-01
43.000      6.52302e-01
44.000      5.93348e-01
45.000      6.94937e-01
46.000      9.58710e-01
47.000      1.38673e+00
48.000      1.97317e+00
49.000      2.69427e+00
50.000      3.50070e+00
51.000      4.31634e+00
52.000      5.04599e+00
53.000      5.59156e+00
54.000      5.87281e+00
55.000      5.84631e+00
56.000      5.51639e+00
57.000      4.93398e+00
58.000      4.18411e+00
59.000      3.36617e+00
60.000      2.57382e+00
61.000      1.88033e+00
62.000      1.33271e+00
63.000      9.54262e-01
64.000      7.52592e-01
65.000      7.28687e-01
66.000      8.83070e-01
67.000      1.21661e+00
68.000      1.72572e+00
69.000      2.39393e+00
70.000      3.18373e+00
71.000      4.03324e+00
72.000      4.86135e+00
73.000      5.58248e+00
74.000      6.12773e+00
75.000      6.46636e+00
76.000      6.61944e+00
77.000      6.65970e+00
78.000      6.69603e+00
79.000      6.84693e+00
80.000      7.21147e+00
81.000      7.84717e+00
82.000      8.76128e+00
83.000      9.91616e+00
84.000      1.12440e+01
85.000      1.26627e+01
86.000      1.40869e+01
87.000      1.54303e+01
88.000      1.66038e+01
89.000      1.75149e+01
90.000      1.80738e+01
91.000      1.82096e+01
92.000      1.78895e+01
93.000      1.71350e+01
94.000      1.60263e+01
95.000      1.46900e+01
96.000      1.32741e+01
97.000      1.19182e+01
98.000      1.07304e+01
99.000      9.77705e+00
100.000      9.08808e+00
101.000      8.67261e+00
102.000      8.53539e+00
103.000      8.68664e+00
104.000      9.14142e+00
105.000      9.91074e+00
106.000      1.09899e+01
107.000      1.23498e+01
108.000      1.39345e+01
109.000      1.56637e+01
110.000      1.74383e+01
111.000      1.91461e+01
112.000      2.06683e+01
113.000      2.18889e+01
114.000      2.27083e+01
115.000      2.30618e+01
116.000      2.29370e+01
117.000      2.23850e+01
118.000      2.15188e+01
119.000      2.04953e+01
120.000      1.94846e+01
121.000      1.86350e+01
122.000      1.80411e+01
123.000      1.77270e+01
124.000      1.76472e+01
125.000      1.77039e+01
126.000      1.77760e+01
127.000      1.77477e+01
128.000      1.75311e+01
129.000      1.70777e+01
130.000      1.63773e+01
131.000      1.54501e+01
132.000      1.43363e+01
133.000      1.30874e+01
134.000      1.17610e+01
135.000      1.04190e+01
136.000      9.12459e+00
137.000      7.93812e+00
138.000      6.91068e+00
139.000      6.07602e+00
140.000      5.44408e+00
141.000      4.99804e+00
142.000      4.69672e+00
143.000      4.48224e+00
144.000      4.29147e+00
145.000      4.06860e+00
146.000      3.77582e+00
147.000      3.39930e+00
148.000      2.94930e+00
149.000      2.45455e+00
150.000      1.95312e+00
151.000      1.48246e+00
152.000      1.07157e+00
153.000      7.36737e-01
154.000      4.81386e-01
155.000      2.98804e-01
156.000      1.76334e-01
157.000      9.94977e-02
158.000      5.51305e-02
159.000      3.32714e-02
160.000      2.80448e-02
161.000      3.79704e-02
162.000      6.60745e-02
163.000      1.19943e-01
164.000      2.11564e-01
165.000      3.56607e-01
166.000      5.72726e-01
167.000      8.76721e-01
168.000      1.28081e+00
169.000      1.78882e+00
170.000      2.39359e+00
171.000      3.07661e+00
172.000      3.81071e+00
173.000      4.56525e+00
174.000      5.31264e+00
175.000      6.03397e+00
176.000      6.72240e+00
177.000      7.38302e+00
178.000      8.02972e+00
179.000      8.68023e+00
180.000      9.35059e+00
181.000      1.00506e+01
182.000      1.07807e+01
183.000      1.15306e+01
184.000      1.22802e+01
185.000      1.30018e+01
186.000      1.36650e+01
187.000      1.42426e+01
188.000      1.47168e+01
189.000      1.50835e+01
190.000      1.53538e+01
191.000      1.55509e+01
192.000      1.57041e+01
193.000      1.58415e+01
194.000      1.59839e+01
195.000      1.61417e+01
196.000      1.63171e+01
197.000      1.65091e+01
198.000      1.67200e+01
199.000      1.69619e+01
200.000      1.72575e+01
201.000      1.76373e+01
202.000      1.81309e+01
203.000      1.87557e+01
204.000      1.95063e+01
205.000      2.03472e+01
206.000      2.12136e+01
207.000      2.20190e+01
208.000      2.26704e+01
209.000      2.30863e+01
210.000      2.32125e+01
211.000      2.30328e+01
212.000      2.25699e+01
213.000      2.18785e+01
214.000      2.10328e+01
215.000      2.01140e+01
216.000      1.92000e+01
217.000      1.83614e+01
218.000      1.76587e+01
219.000      1.71412e+01
220.000      1.68437e+01
221.000      1.67807e+01
222.000      1.69430e+01
223.000      1.72979e+01
224.000      1.77961e+01
225.000      1.83840e+01
226.000      1.90159e+01
227.000      1.96627e+01
228.000      2.03115e+01
229.000      2.09588e+01
230.000      2.15985e+01
231.000      2.22119e+01
232.000      2.27627e+01
233.000      2.32004e+01
234.000      2.34705e+01
235.000      2.35285e+01
236.000      2.33531e+01
237.000      2.29548e+01
238.000      2.23767e+01
239.000      2.16889e+01
240.000      2.09758e+01
241.000      2.03235e+01
242.000      1.98081e+01
243.000      1.94899e+01
244.000      1.94119e+01
245.000      1.96004e+01
246.000      2.00638e+01
247.000      2.07882e+01
248.000      2.17284e+01
249.000      2.27998e+01
250.000      2.38766e+01
251.000      2.48013e+01
252.000      2.54067e+01
253.000      2.55461e+01
254.000      2.51238e+01
255.000      2.41146e+01
256.000      2.25690e+01
257.000      2.05991e+01
258.000      1.83538e+01
259.000      1.59901e+01
260.000      1.36489e+01
261.000      1.14413e+01
262.000      9.44458e+00
263.000      7.70588e+00
264.000      6.24946e+00
265.000      5.08352e+00
266.000      4.20513e+00
267.000      3.60263e+00
268.000      3.25595e+00
269.000      3.13555e+00
270.000      3.20130e+00
271.000      3.40251e+00
272.000      3.68027e+00
273.000      3.97251e+00
274.000      4.22117e+00
275.000      4.37987e+00
276.000      4.42003e+00
277.000      4.33377e+00
278.000      4.13269e+00
279.000      3.84303e+00
280.000      3.49846e+00
281.000      3.13232e+00
282.000      2.77130e+00
283.000      2.43181e+00
284.000      2.11975e+00
285.000      1.83315e+00
286.000      1.56643e+00
287.000      1.31464e+00
288.000      1.07628e+00
289.000      8.53860e-01
290.000      6.52676e-01
291.000      4.78496e-01
292.000      3.35414e-01
293.000      2.24628e-01
294.000      1.44437e-01
295.000      9.12048e-02
296.000      6.07891e-02
297.000      4.99253e-02
298.000      5.71819e-02
299.000      8.32935e-02
300.000      1.30798e-01
301.000      2.03014e-01
302.000      3.02526e-01
303.000      4.29546e-01
304.000      5.80680e-01
305.000      7.48716e-01
306.000      9.23773e-01
307.000      1.09569e+00
308.000      1.25683e+00
309.000      1.40422e+00
310.000      1.53975e+00
311.000      1.66834e+00
312.000      1.79454e+00
313.000      1.91938e+00
314.000      2.03915e+00
315.000      2.14747e+00
316.000      2.24011e+00
317.000      2.32128e+00
318.000      2.40848e+00
319.000      2.53362e+00
320.000      2.73912e+00
321.000      3.06931e+00
322.000      3.55956e+00
323.000      4.22647e+00
324.000      5.06276e+00
325.000      6.03874e+00
326.000      7.11064e+00
327.000      8.23300e+00
328.000      9.37119e+00
329.000      1.05095e+01
330.000      1.16517e+01
331.000      1.28139e+01
332.000      1.40115e+01
333.000      1.52449e+01
334.000      1.64888e+01
335.000      1.76877e+01
336.000      1.87606e+01
337.000      1.96116e+01
338.000      2.01451e+01
339.000      2.02817e+01
340.000      1.99704e+01
341.000      1.91979e+01
342.000      1.79914e+01
343.000      1.64166e+01
344.000      1.45718e+01
345.000      1.25776e+01
346.000      1.05632e+01
347.000      8.65271e+00
348.000      6.95084e+00
349.000      5.53332e+00
350.000      4.44234e+00
351.000      3.68841e+00
352.000      3.25710e+00
353.000      3.11770e+00
354.000      3.23074e+00
355.000      3.55193e+00
356.000      4.03264e+00
357.000      4.61850e+00
358.000      5.24901e+00
359.000      5.86032e+00
360.000      6.39167e+00
361.000      6.79397e+00
362.000      7.03756e+00
363.000      7.11639e+00
364.000      7.04696e+00
365.000      6.86230e+00
366.000      6.60291e+00
367.000      6.30732e+00
368.000      6.00486e+00
369.000      5.71220e+00
370.000      5.43384e+00
371.000      5.16585e+00
372.000      4.90108e+00
373.000      4.63414e+00
374.000      4.36471e+00
375.000      4.09832e+00
376.000      3.84492e+00
377.000      3.61594e+00
378.000      3.42103e+00
379.000      3.26545e+00
380.000      3.14888e+00
381.000      3.06560e+00
382.000      3.00578e+00
383.000      2.95732e+00
384.000      2.90757e+00
385.000      2.84478e+00
386.000      2.75901e+00
387.000      2.64263e+00
388.000      2.49080e+00
389.000      2.30193e+00
390.000      2.07822e+00
391.000      1.82606e+00
392.000      1.55577e+00
393.000      1.28068e+00
394.000      1.01522e+00
395.000      7.72706e-01
396.000      5.63206e-01
397.000      3.92239e-01
398.000      2.60524e-01
399.000      1.64772e-01
400.000      9.91074e-02
401.000      5.66321e-02
402.000      3.07178e-02
403.000      1.58052e-02
404.000      7.70996e-03
405.000      3.56421e-03
406.000      1.56093e-03
407.000      6.47430e-04
408.000      2.54271e-04
409.000      9.45404e-05
410.000      3.32733e-05
411.000      1.10837e-05
412.000      3.49416e-06
413.000      1.04242e-06
414.000      2.94276e-07
415.000      7.86074e-08
416.000      1.98679e-08
417.000      4.75127e-09
418.000      1.07504e-09
419.000      2.30137e-10
420.000      4.66116e-11
421.000      8.93180e-12
422.000      1.61926e-12
423.000      2.77733e-13
424.000      4.50676e-14
425.000      6.91876e-15
426.000      1.00488e-15
427.000      1.38079e-16
428.000      1.79498e-17
429.000      2.20756e-18
430.000      2.56854e-19
431.000      2.82736e-20
432.000      2.94438e-21
433.000      2.90085e-22
434.000      2.70381e-23
435.000      2.38422e-24
436.000      1.98900e-25
437.000      1.56978e-26
438.000      1.17210e-27
439.000      8.27953e-29
440.000      5.53306e-30
441.000      3.49819e-31
442.000      2.09237e-32
443.000      1.18400e-33
444.000      6.33844e-35
445.000      3.21019e-36
446.000      1.53815e-37
447.000      6.97238e-39
448.000      2.99008e-40
449.000      1.21312e-41
450.000      4.65628e-43
451.000      1.69080e-44
452.000      5.80852e-46
453.000      1.88780e-47
454.000      5.80447e-49
455.000      1.68845e-50
456.000      4.64655e-52
457.000      1.20974e-53
458.000      2.97967e-55
459.000      6.94326e-57
460.000      1.53065e-58
461.000      3.19232e-60
462.000      6.29876e-62
463.000      1.17577e-63
464.000      2.07637e-65
465.000      3.46901e-67
466.000      5.48307e-69
467.000      8.19899e-71
468.000      1.15988e-72
469.000      1.55233e-74
470.000      1.96551e-76
471.000      2.35440e-78
472.000      2.66812e-80
473.000      2.86053e-82
474.000      2.90139e-84
475.000      2.78409e-86
476.000      2.52742e-88
477.000      2.17065e-90
478.000      1.76368e-92
479.000      1.35571e-94
480.000      9.85899e-97
481.000      6.78289e-99
482.000     4.41484e-101
483.000     2.71852e-103
484.000     1.58368e-105
485.000     8.72813e-108
486.000     4.55084e-110
487.000     2.24481e-112
488.000     1.04758e-114
489.000     4.62497e-117
490.000     1.93175e-119
491.000     7.63324e-122
492.000     2.85355e-124
493.000     1.00920e-126
494.000     3.37668e-129
495.000     1.06886e-131
496.000     3.20085e-134
497.000     9.06839e-137
498.000     2.43059e-139
499.000     6.16327e-142
500.000     1.47852e-144
