# Gaussian folded, width=10 cm^-1
# [cm^-1] arbitrary
0.000      3.00000e+00
1.000      2.91796e+00
2.000      2.68508e+00
3.000      2.33749e+00
4.000      1.92514e+00
5.000      1.50000e+00
6.000      1.10570e+00
7.000      7.71085e-01
8.000      5.08727e-01
9.000      3.17530e-01
10.000      1.87502e-01
11.000      1.04753e-01
12.000      5.53819e-02
13.000      2.77510e-02
14.000      1.33049e-02
15.000      6.45281e-03
16.000      4.05584e-03
17.000      4.95172e-03
18.000      9.79295e-03
19.000      2.13442e-02
20.000      4.52741e-02
21.000      9.13318e-02
22.000      1.74569e-01
23.000      3.15963e-01
24.000      5.41489e-01
25.000      8.78680e-01
26.000      1.35010e+00
27.000      1.96425e+00
28.000      2.70604e+00
29.000      3.53006e+00
30.000      4.36058e+00
31.000      5.10066e+00
32.000      5.64978e+00
33.000      5.92602e+00
34.000      5.88608e+00
35.000      5.53642e+00
36.000      4.93163e+00
37.000      4.16073e+00
38.000      3.32616e+00
39.000      2.52268e+00
40.000      1.82229e+00
41.000      1.26856e+00
42.000      8.79846e-01
43.000      6.58238e-01
44.000      5.99780e-01
45.000      7.01975e-01
46.000      9.66087e-01
47.000      1.39357e+00
48.000      1.97794e+00
49.000      2.69500e+00
50.000      3.49550e+00
51.000      4.30409e+00
52.000      5.02699e+00
53.000      5.56778e+00
54.000      5.84764e+00
55.000      5.82381e+00
56.000      5.50019e+00
57.000      4.92638e+00
58.000      4.18551e+00
59.000      3.37525e+00
60.000      2.58810e+00
61.000      1.89705e+00
62.000      1.34949e+00
63.000      9.69505e-01
64.000      7.65419e-01
65.000      7.38566e-01
66.000      8.89333e-01
67.000      1.21809e+00
68.000      1.72070e+00
69.000      2.38063e+00
70.000      3.16115e+00
71.000      4.00229e+00
72.000      4.82584e+00
73.000      5.54938e+00
74.000      6.10664e+00
75.000      6.46777e+00
76.000      6.65238e+00
77.000      6.72917e+00
78.000      6.80099e+00
79.000      6.97944e+00
80.000      7.35725e+00
81.000      7.98776e+00
82.000      8.87735e+00
83.000      9.99156e+00
84.000      1.12695e+01
85.000      1.26388e+01
86.000      1.40242e+01
87.000      1.53477e+01
88.000      1.65243e+01
89.000      1.74597e+01
90.000      1.80572e+01
91.000      1.82347e+01
92.000      1.79475e+01
93.000      1.72078e+01
94.000      1.60916e+01
95.000      1.47276e+01
96.000      1.32718e+01
97.000      1.18753e+01
98.000      1.06579e+01
99.000      9.69500e+00
100.000      9.02065e+00
101.000      8.64225e+00
102.000      8.55752e+00
103.000      8.76625e+00
104.000      9.27242e+00
105.000      1.00781e+01
106.000      1.11738e+01
107.000      1.25306e+01
108.000      1.40968e+01
109.000      1.57985e+01
110.000      1.75429e+01
111.000      1.92227e+01
112.000      2.07217e+01
113.000      2.19255e+01
114.000      2.27364e+01
115.000      2.30919e+01
116.000      2.29828e+01
117.000      2.24616e+01
118.000      2.16383e+01
119.000      2.06605e+01
120.000      1.96823e+01
121.000      1.88312e+01
122.000      1.81818e+01
123.000      1.77441e+01
124.000      1.74693e+01
125.000      1.72701e+01
126.000      1.70475e+01
127.000      1.67173e+01
128.000      1.62276e+01
129.000      1.55642e+01
130.000      1.47466e+01
131.000      1.38157e+01
132.000      1.28209e+01
133.000      1.18105e+01
134.000      1.08255e+01
135.000      9.89904e+00
136.000      9.05626e+00
137.000      8.31447e+00
138.000      7.68161e+00
139.000      7.15432e+00
140.000      6.71676e+00
141.000      6.34192e+00
142.000      5.99551e+00
143.000      5.64195e+00
144.000      5.25086e+00
145.000      4.80270e+00
146.000      4.29223e+00
147.000      3.72920e+00
148.000      3.13605e+00
149.000      2.54308e+00
150.000      1.98228e+00
151.000      1.48126e+00
152.000      1.05869e+00
153.000      7.22386e-01
154.000      4.69889e-01
155.000      2.91157e-01
156.000      1.72105e-01
157.000      9.80326e-02
158.000      5.62381e-02
159.000      3.76344e-02
160.000      3.75597e-02
161.000      5.61053e-02
162.000      9.82067e-02
163.000      1.73521e-01
164.000      2.95880e-01
165.000      4.81995e-01
166.000      7.49183e-01
167.000      1.11219e+00
168.000      1.57963e+00
169.000      2.15088e+00
170.000      2.81447e+00
171.000      3.54866e+00
172.000      4.32424e+00
173.000      5.10922e+00
174.000      5.87420e+00
175.000      6.59739e+00
176.000      7.26820e+00
177.000      7.88864e+00
178.000      8.47220e+00
179.000      9.04029e+00
180.000      9.61670e+00
181.000      1.02212e+01
182.000      1.08636e+01
183.000      1.15393e+01
184.000      1.22285e+01
185.000      1.28980e+01
186.000      1.35074e+01
187.000      1.40165e+01
188.000      1.43946e+01
189.000      1.46278e+01
190.000      1.47227e+01
191.000      1.47062e+01
192.000      1.46203e+01
193.000      1.45134e+01
194.000      1.44327e+01
195.000      1.44172e+01
196.000      1.44956e+01
197.000      1.46862e+01
198.000      1.49993e+01
199.000      1.54386e+01
200.000      1.60008e+01
201.000      1.66734e+01
202.000      1.74316e+01
203.000      1.82369e+01
204.000      1.90395e+01
205.000      1.97834e+01
206.000      2.04151e+01
207.000      2.08929e+01
208.000      2.11929e+01
209.000      2.13120e+01
210.000      2.12649e+01
211.000      2.10775e+01
212.000      2.07794e+01
213.000      2.03972e+01
214.000      1.99531e+01
215.000      1.94669e+01
216.000      1.89620e+01
217.000      1.84706e+01
218.000      1.80356e+01
219.000      1.77067e+01
220.000      1.75310e+01
221.000      1.75420e+01
222.000      1.77510e+01
223.000      1.81442e+01
224.000      1.86876e+01
225.000      1.93369e+01
226.000      2.00495e+01
227.000      2.07930e+01
228.000      2.15488e+01
229.000      2.23081e+01
230.000      2.30646e+01
231.000      2.38034e+01
232.000      2.44932e+01
233.000      2.50823e+01
234.000      2.55026e+01
235.000      2.56812e+01
236.000      2.55574e+01
237.000      2.51009e+01
238.000      2.43261e+01
239.000      2.32965e+01
240.000      2.21195e+01
241.000      2.09303e+01
242.000      1.98716e+01
243.000      1.90731e+01
244.000      1.86360e+01
245.000      1.86226e+01
246.000      1.90515e+01
247.000      1.98947e+01
248.000      2.10765e+01
249.000      2.24729e+01
250.000      2.39170e+01
251.000      2.52107e+01
252.000      2.61477e+01
253.000      2.65437e+01
254.000      2.62694e+01
255.000      2.52760e+01
256.000      2.36073e+01
257.000      2.13924e+01
258.000      1.88210e+01
259.000      1.61085e+01
260.000      1.34602e+01
261.000      1.10421e+01
262.000      8.96507e+00
263.000      7.28166e+00
264.000      5.99316e+00
265.000      5.06317e+00
266.000      4.43292e+00
267.000      4.03531e+00
268.000      3.80574e+00
269.000      3.68899e+00
270.000      3.64201e+00
271.000      3.63350e+00
272.000      3.64128e+00
273.000      3.64885e+00
274.000      3.64235e+00
275.000      3.60895e+00
276.000      3.53700e+00
277.000      3.41784e+00
278.000      3.24834e+00
279.000      3.03301e+00
280.000      2.78440e+00
281.000      2.52095e+00
282.000      2.26275e+00
283.000      2.02626e+00
284.000      1.82008e+00
285.000      1.64327e+00
286.000      1.48701e+00
287.000      1.33880e+00
288.000      1.18750e+00
289.000      1.02732e+00
290.000      8.59332e-01
291.000      6.90402e-01
292.000      5.30296e-01
293.000      3.88463e-01
294.000      2.71629e-01
295.000      1.82903e-01
296.000      1.22306e-01
297.000      8.82069e-02
298.000      7.89411e-02
299.000      9.40143e-02
300.000      1.34515e-01
301.000      2.02650e-01
302.000      3.00586e-01
303.000      4.29036e-01
304.000      5.86235e-01
305.000      7.67908e-01
306.000      9.68566e-01
307.000      1.18386e+00
308.000      1.41300e+00
309.000      1.66002e+00
310.000      1.93257e+00
311.000      2.23841e+00
312.000      2.58051e+00
313.000      2.95304e+00
314.000      3.34036e+00
315.000      3.72013e+00
316.000      4.06967e+00
317.000      4.37357e+00
318.000      4.62941e+00
319.000      4.84990e+00
320.000      5.06054e+00
321.000      5.29409e+00
322.000      5.58368e+00
323.000      5.95678e+00
324.000      6.43129e+00
325.000      7.01453e+00
326.000      7.70460e+00
327.000      8.49321e+00
328.000      9.36856e+00
329.000      1.03169e+01
330.000      1.13220e+01
331.000      1.23635e+01
332.000      1.34140e+01
333.000      1.44381e+01
334.000      1.53933e+01
335.000      1.62337e+01
336.000      1.69149e+01
337.000      1.73985e+01
338.000      1.76556e+01
339.000      1.76663e+01
340.000      1.74198e+01
341.000      1.69136e+01
342.000      1.61547e+01
343.000      1.51630e+01
344.000      1.39743e+01
345.000      1.26419e+01
346.000      1.12323e+01
347.000      9.81841e+00
348.000      8.46899e+00
349.000      7.24005e+00
350.000      6.16958e+00
351.000      5.27728e+00
352.000      4.56838e+00
353.000      4.03911e+00
354.000      3.68131e+00
355.000      3.48471e+00
356.000      3.43654e+00
357.000      3.51955e+00
358.000      3.70989e+00
359.000      3.97625e+00
360.000      4.28109e+00
361.000      4.58388e+00
362.000      4.84554e+00
363.000      5.03332e+00
364.000      5.12488e+00
365.000      5.11112e+00
366.000      4.99703e+00
367.000      4.80041e+00
368.000      4.54844e+00
369.000      4.27255e+00
370.000      4.00249e+00
371.000      3.76112e+00
372.000      3.56115e+00
373.000      3.40478e+00
374.000      3.28610e+00
375.000      3.19543e+00
376.000      3.12412e+00
377.000      3.06832e+00
378.000      3.03081e+00
379.000      3.02043e+00
380.000      3.04937e+00
381.000      3.12907e+00
382.000      3.26551e+00
383.000      3.45501e+00
384.000      3.68149e+00
385.000      3.91617e+00
386.000      4.12028e+00
387.000      4.25107e+00
388.000      4.26997e+00
389.000      4.15121e+00
390.000      3.88842e+00
391.000      3.49704e+00
392.000      3.01154e+00
393.000      2.47821e+00
394.000      1.94560e+00
395.000      1.45541e+00
396.000      1.03635e+00
397.000      7.01879e-01
398.000      4.51830e-01
399.000      2.76320e-01
400.000      1.60464e-01
401.000      8.84529e-02
402.000      4.62672e-02
403.000      2.29585e-02
404.000      1.08048e-02
405.000      4.82173e-03
406.000      2.03996e-03
407.000      8.18088e-04
408.000      3.10939e-04
409.000      1.11992e-04
410.000      3.82198e-05
411.000      1.23574e-05
412.000      3.78496e-06
413.000      1.09813e-06
414.000      3.01760e-07
415.000      7.85341e-08
416.000      1.93557e-08
417.000      4.51739e-09
418.000      9.98313e-10
419.000      2.08892e-10
420.000      4.13836e-11
421.000      7.76188e-12
422.000      1.37822e-12
423.000      2.31666e-13
424.000      3.68622e-14
425.000      5.55215e-15
426.000      7.91564e-16
427.000      1.06817e-16
428.000      1.36431e-17
429.000      1.64927e-18
430.000      1.88697e-19
431.000      2.04324e-20
432.000      2.09386e-21
433.000      2.03066e-22
434.000      1.86373e-23
435.000      1.61873e-24
436.000      1.33047e-25
437.000      1.03482e-26
438.000      7.61640e-28
439.000      5.30459e-29
440.000      3.49596e-30
441.000      2.18015e-31
442.000      1.28649e-32
443.000      7.18328e-34
444.000      3.79516e-35
445.000      1.89725e-36
446.000      8.97431e-38
447.000      4.01658e-39
448.000      1.70093e-40
449.000      6.81536e-42
450.000      2.58380e-43
451.000      9.26820e-45
452.000      3.14553e-46
453.000      1.01007e-47
454.000      3.06880e-49
455.000      8.82146e-51
456.000      2.39919e-52
457.000      6.17363e-54
458.000      1.50302e-55
459.000      3.46207e-57
460.000      7.54489e-59
461.000      1.55566e-60
462.000      3.03471e-62
463.000      5.60094e-64
464.000      9.78013e-66
465.000      1.61572e-67
466.000      2.52537e-69
467.000      3.73439e-71
468.000      5.22456e-73
469.000      6.91534e-75
470.000      8.65984e-77
471.000      1.02598e-78
472.000      1.15000e-80
473.000      1.21952e-82
474.000      1.22351e-84
475.000      1.16134e-86
476.000      1.04288e-88
477.000      8.86015e-91
478.000      7.12154e-93
479.000      5.41543e-95
480.000      3.89599e-97
481.000      2.65173e-99
482.000     1.70752e-101
483.000     1.04022e-103
484.000     5.99531e-106
485.000     3.26904e-108
486.000     1.68637e-110
487.000     8.23019e-113
488.000     3.80005e-115
489.000     1.65993e-117
490.000     6.85985e-120
491.000     2.68201e-122
492.000     9.92039e-125
493.000     3.47151e-127
494.000     1.14929e-129
495.000     3.59966e-132
496.000     1.06663e-134
497.000     2.99012e-137
498.000     7.93017e-140
499.000     1.98974e-142
500.000     4.72316e-145
