# Gaussian folded, width=10 cm^-1
# [cm^-1] arbitrary
0.000      3.00000e+00
1.000      2.91796e+00
2.000      2.68508e+00
3.000      2.33749e+00
4.000      1.92514e+00
5.000      1.50000e+00
6.000      1.10570e+00
7.000      7.71085e-01
8.000      5.08727e-01
9.000      3.17529e-01
10.000      1.87500e-01
11.000      1.04746e-01
12.000      5.53594e-02
13.000      2.76810e-02
14.000      1.30984e-02
15.000      5.87662e-03
16.000      2.53496e-03
17.000      1.15535e-03
18.000      8.33319e-04
19.000      1.35734e-03
20.000      3.14476e-03
21.000      7.45856e-03
22.000      1.69456e-02
23.000      3.65316e-02
24.000      7.46334e-02
25.000      1.44469e-01
26.000      2.64962e-01
27.000      4.60420e-01
28.000      7.58022e-01
29.000      1.18239e+00
30.000      1.74737e+00
31.000      2.44651e+00
32.000      3.24517e+00
33.000      4.07800e+00
34.000      4.85473e+00
35.000      5.47496e+00
36.000      5.84901e+00
37.000      5.91913e+00
38.000      5.67405e+00
39.000      5.15202e+00
40.000      4.43095e+00
41.000      3.60944e+00
42.000      2.78488e+00
43.000      2.03527e+00
44.000      1.40942e+00
45.000      9.26123e-01
46.000      5.80556e-01
47.000      3.54171e-01
48.000      2.24718e-01
49.000      1.74182e-01
50.000      1.93729e-01
51.000      2.85642e-01
52.000      4.62450e-01
53.000      7.43336e-01
54.000      1.14786e+00
55.000      1.68746e+00
56.000      2.35608e+00
57.000      3.12255e+00
58.000      3.92767e+00
59.000      4.68876e+00
60.000      5.31224e+00
61.000      5.71207e+00
62.000      5.82906e+00
63.000      5.64527e+00
64.000      5.18855e+00
65.000      4.52578e+00
66.000      3.74714e+00
67.000      2.94668e+00
68.000      2.20531e+00
69.000      1.58051e+00
70.000      1.10456e+00
71.000      7.89684e-01
72.000      6.36833e-01
73.000      6.44194e-01
74.000      8.12145e-01
75.000      1.14297e+00
76.000      1.63539e+00
77.000      2.27587e+00
78.000      3.03005e+00
79.000      3.83826e+00
80.000      4.61870e+00
81.000      5.27931e+00
82.000      5.73673e+00
83.000      5.93726e+00
84.000      5.87370e+00
85.000      5.59222e+00
86.000      5.18658e+00
87.000      4.78083e+00
88.000      4.50504e+00
89.000      4.47039e+00
90.000      4.74952e+00
91.000      5.36638e+00
92.000      6.29696e+00
93.000      7.47915e+00
94.000      8.82820e+00
95.000      1.02526e+01
96.000      1.16658e+01
97.000      1.29922e+01
98.000      1.41666e+01
99.000      1.51313e+01
100.000      1.58338e+01
101.000      1.62283e+01
102.000      1.62805e+01
103.000      1.59745e+01
104.000      1.53192e+01
105.000      1.43526e+01
106.000      1.31419e+01
107.000      1.17788e+01
108.000      1.03711e+01
109.000      9.03015e+00
110.000      7.85585e+00
111.000      6.92295e+00
112.000      6.27216e+00
113.000      5.90939e+00
114.000      5.81410e+00
115.000      5.95437e+00
116.000      6.30372e+00
117.000      6.85341e+00
118.000      7.61578e+00
119.000      8.61705e+00
120.000      9.88200e+00
121.000      1.14157e+01
122.000      1.31888e+01
123.000      1.51301e+01
124.000      1.71315e+01
125.000      1.90605e+01
126.000      2.07803e+01
127.000      2.21699e+01
128.000      2.31393e+01
129.000      2.36378e+01
130.000      2.36528e+01
131.000      2.32034e+01
132.000      2.23327e+01
133.000      2.11009e+01
134.000      1.95829e+01
135.000      1.78675e+01
136.000      1.60566e+01
137.000      1.42606e+01
138.000      1.25897e+01
139.000      1.11425e+01
140.000      9.99507e+00
141.000      9.19327e+00
142.000      8.75138e+00
143.000      8.65524e+00
144.000      8.86821e+00
145.000      9.33705e+00
146.000      9.99588e+00
147.000      1.07681e+01
148.000      1.15681e+01
149.000      1.23041e+01
150.000      1.28858e+01
151.000      1.32340e+01
152.000      1.32934e+01
153.000      1.30429e+01
154.000      1.25008e+01
155.000      1.17223e+01
156.000      1.07887e+01
157.000      9.79123e+00
158.000      8.81308e+00
159.000      7.91470e+00
160.000      7.12631e+00
161.000      6.44825e+00
162.000      5.85816e+00
163.000      5.32193e+00
164.000      4.80507e+00
165.000      4.28180e+00
166.000      3.74018e+00
167.000      3.18315e+00
168.000      2.62585e+00
169.000      2.09054e+00
170.000      1.60059e+00
171.000      1.17511e+00
172.000      8.25415e-01
173.000      5.53956e-01
174.000      3.55489e-01
175.000      2.19816e-01
176.000      1.35070e-01
177.000      9.07135e-02
178.000      7.97119e-02
179.000      9.96380e-02
180.000      1.52684e-01
181.000      2.44575e-01
182.000      3.82435e-01
183.000      5.71799e-01
184.000      8.13337e-01
185.000      1.10021e+00
186.000      1.41717e+00
187.000      1.74234e+00
188.000      2.05153e+00
189.000      2.32411e+00
190.000      2.54849e+00
191.000      2.72507e+00
192.000      2.86566e+00
193.000      2.98971e+00
194.000      3.11915e+00
195.000      3.27413e+00
196.000      3.47095e+00
197.000      3.72237e+00
198.000      4.03918e+00
199.000      4.43132e+00
200.000      4.90761e+00
201.000      5.47410e+00
202.000      6.13182e+00
203.000      6.87475e+00
204.000      7.68872e+00
205.000      8.55132e+00
206.000      9.43271e+00
207.000      1.02974e+01
208.000      1.11067e+01
209.000      1.18225e+01
210.000      1.24103e+01
211.000      1.28432e+01
212.000      1.31048e+01
213.000      1.31910e+01
214.000      1.31111e+01
215.000      1.28873e+01
216.000      1.25523e+01
217.000      1.21457e+01
218.000      1.17080e+01
219.000      1.12758e+01
220.000      1.08774e+01
221.000      1.05308e+01
222.000      1.02438e+01
223.000      1.00158e+01
224.000      9.83923e+00
225.000      9.70160e+00
226.000      9.58637e+00
227.000      9.47485e+00
228.000      9.34908e+00
229.000      9.19570e+00
230.000      9.00981e+00
231.000      8.79724e+00
232.000      8.57407e+00
233.000      8.36302e+00
234.000      8.18757e+00
235.000      8.06528e+00
236.000      8.00227e+00
237.000      7.99000e+00
238.000      8.00561e+00
239.000      8.01573e+00
240.000      7.98338e+00
241.000      7.87655e+00
242.000      7.67644e+00
243.000      7.38299e+00
244.000      7.01625e+00
245.000      6.61255e+00
246.000      6.21666e+00
247.000      5.87177e+00
248.000      5.61017e+00
249.000      5.44671e+00
250.000      5.37648e+00
251.000      5.37664e+00
252.000      5.41134e+00
253.000      5.43839e+00
254.000      5.41614e+00
255.000      5.30981e+00
256.000      5.09656e+00
257.000      4.76879e+00
258.000      4.33544e+00
259.000      3.82085e+00
260.000      3.26116e+00
261.000      2.69888e+00
262.000      2.17630e+00
263.000      1.72919e+00
264.000      1.38174e+00
265.000      1.14362e+00
266.000      1.00942e+00
267.000      9.60500e-01
268.000      9.68904e-01
269.000      1.00259e+00
270.000      1.03124e+00
271.000      1.03148e+00
272.000      9.90341e-01
273.000      9.06310e-01
274.000      7.87669e-01
275.000      6.48900e-01
276.000      5.06280e-01
277.000      3.74000e-01
278.000      2.61748e-01
279.000      1.74092e-01
280.000      1.11380e-01
281.000      7.15390e-02
282.000      5.21519e-02
283.000      5.23197e-02
284.000      7.40736e-02
285.000      1.23199e-01
286.000      2.09350e-01
287.000      3.45271e-01
288.000      5.44997e-01
289.000      8.21057e-01
290.000      1.18114e+00
291.000      1.62498e+00
292.000      2.14256e+00
293.000      2.71438e+00
294.000      3.31400e+00
295.000      3.91241e+00
296.000      4.48287e+00
297.000      5.00514e+00
298.000      5.46822e+00
299.000      5.87133e+00
300.000      6.22343e+00
301.000      6.54160e+00
302.000      6.84824e+00
303.000      7.16700e+00
304.000      7.51779e+00
305.000      7.91167e+00
306.000      8.34750e+00
307.000      8.81163e+00
308.000      9.28162e+00
309.000      9.73309e+00
310.000      1.01475e+01
311.000      1.05182e+01
312.000      1.08523e+01
313.000      1.11690e+01
314.000      1.14935e+01
315.000      1.18506e+01
316.000      1.22593e+01
317.000      1.27300e+01
318.000      1.32645e+01
319.000      1.38586e+01
320.000      1.45068e+01
321.000      1.52068e+01
322.000      1.59639e+01
323.000      1.67939e+01
324.000      1.77227e+01
325.000      1.87827e+01
326.000      2.00061e+01
327.000      2.14143e+01
328.000      2.30074e+01
329.000      2.47551e+01
330.000      2.65921e+01
331.000      2.84229e+01
332.000      3.01333e+01
333.000      3.16100e+01
334.000      3.27623e+01
335.000      3.35403e+01
336.000      3.39453e+01
337.000      3.40277e+01
338.000      3.38742e+01
339.000      3.35871e+01
340.000      3.32623e+01
341.000      3.29713e+01
342.000      3.27501e+01
343.000      3.25988e+01
344.000      3.24874e+01
345.000      3.23665e+01
346.000      3.21792e+01
347.000      3.18706e+01
348.000      3.13943e+01
349.000      3.07150e+01
350.000      2.98103e+01
351.000      2.86710e+01
352.000      2.73016e+01
353.000      2.57225e+01
354.000      2.39702e+01
355.000      2.20967e+01
356.000      2.01661e+01
357.000      1.82492e+01
358.000      1.64156e+01
359.000      1.47278e+01
360.000      1.32353e+01
361.000      1.19712e+01
362.000      1.09517e+01
363.000      1.01757e+01
364.000      9.62649e+00
365.000      9.27270e+00
366.000      9.06951e+00
367.000      8.96049e+00
368.000      8.88072e+00
369.000      8.76245e+00
370.000      8.54339e+00
371.000      8.17709e+00
372.000      7.64297e+00
373.000      6.95346e+00
374.000      6.15529e+00
375.000      5.32421e+00
376.000      4.55371e+00
377.000      3.94072e+00
378.000      3.57148e+00
379.000      3.51050e+00
380.000      3.79402e+00
381.000      4.42795e+00
382.000      5.38942e+00
383.000      6.63057e+00
384.000      8.08385e+00
385.000      9.66810e+00
386.000      1.12950e+01
387.000      1.28754e+01
388.000      1.43242e+01
389.000      1.55636e+01
390.000      1.65251e+01
391.000      1.71502e+01
392.000      1.73920e+01
393.000      1.72189e+01
394.000      1.66208e+01
395.000      1.56151e+01
396.000      1.42514e+01
397.000      1.26114e+01
398.000      1.08018e+01
399.000      8.94215e+00
400.000      7.14958e+00
401.000      5.52361e+00
402.000      4.13553e+00
403.000      3.02345e+00
404.000      2.19327e+00
405.000      1.62406e+00
406.000      1.27561e+00
407.000      1.09655e+00
408.000      1.03167e+00
409.000      1.02835e+00
410.000      1.04175e+00
411.000      1.03870e+00
412.000      9.99915e-01
413.000      9.19874e-01
414.000      8.04550e-01
415.000      6.67329e-01
416.000      5.24272e-01
417.000      3.89890e-01
418.000      2.74391e-01
419.000      1.82716e-01
420.000      1.15115e-01
421.000      6.86152e-02
422.000      3.86931e-02
423.000      2.06428e-02
424.000      1.04190e-02
425.000      4.97505e-03
426.000      2.24745e-03
427.000      9.60504e-04
428.000      3.88353e-04
429.000      1.48550e-04
430.000      5.37569e-05
431.000      1.84041e-05
432.000      5.96090e-06
433.000      1.82653e-06
434.000      5.29493e-07
435.000      1.45215e-07
436.000      3.76773e-08
437.000      9.24837e-09
438.000      2.14768e-09
439.000      4.71835e-10
440.000      9.80683e-11
441.000      1.92835e-11
442.000      3.58722e-12
443.000      6.31321e-13
444.000      1.05114e-13
445.000      1.65572e-14
446.000      2.46735e-15
447.000      3.47850e-16
448.000      4.63950e-17
449.000      5.85421e-18
450.000      6.98849e-19
451.000      7.89251e-20
452.000      8.43267e-21
453.000      8.52379e-22
454.000      8.15113e-23
455.000      7.37429e-24
456.000      6.31162e-25
457.000      5.11068e-26
458.000      3.91502e-27
459.000      2.83731e-28
460.000      1.94535e-29
461.000      1.26184e-30
462.000      7.74340e-32
463.000      4.49547e-33
464.000      2.46909e-34
465.000      1.28297e-35
466.000      6.30683e-37
467.000      2.93309e-38
468.000      1.29050e-39
469.000      5.37163e-41
470.000      2.11530e-42
471.000      7.88055e-44
472.000      2.77753e-45
473.000      9.26143e-47
474.000      2.92156e-48
475.000      8.71906e-50
476.000      2.46174e-51
477.000      6.57555e-53
478.000      1.66165e-54
479.000      3.97250e-56
480.000      8.98477e-58
481.000      1.92250e-59
482.000      3.89175e-61
483.000      7.45316e-63
484.000      1.35037e-64
485.000      2.31465e-66
486.000      3.75347e-68
487.000      5.75836e-70
488.000      8.35761e-72
489.000      1.14758e-73
490.000      1.49074e-75
491.000      1.83205e-77
492.000      2.13006e-79
493.000      2.34295e-81
494.000      2.43811e-83
495.000      2.40026e-85
496.000      2.23555e-87
497.000      1.96981e-89
498.000      1.64204e-91
499.000      1.29498e-93
500.000      9.66177e-96
