# Gaussian folded, width=10 cm^-1
# [cm^-1] arbitrary
0.000      3.00000e+00
1.000      2.91796e+00
2.000      2.68508e+00
3.000      2.33749e+00
4.000      1.92514e+00
5.000      1.50000e+00
6.000      1.10570e+00
7.000      7.71085e-01
8.000      5.08727e-01
9.000      3.17529e-01
10.000      1.87500e-01
11.000      1.04746e-01
12.000      5.53594e-02
13.000      2.76810e-02
14.000      1.30984e-02
15.000      5.87662e-03
16.000      2.53502e-03
17.000      1.15575e-03
18.000      8.34921e-04
19.000      1.36274e-03
20.000      3.16081e-03
21.000      7.50171e-03
22.000      1.70518e-02
23.000      3.67729e-02
24.000      7.51412e-02
25.000      1.45462e-01
26.000      2.66769e-01
27.000      4.63482e-01
28.000      7.62849e-01
29.000      1.18946e+00
30.000      1.75698e+00
31.000      2.45858e+00
32.000      3.25906e+00
33.000      4.09251e+00
34.000      4.86818e+00
35.000      5.48550e+00
36.000      5.85504e+00
37.000      5.91967e+00
38.000      5.66905e+00
39.000      5.14230e+00
40.000      4.41804e+00
41.000      3.59516e+00
42.000      2.77090e+00
43.000      2.02288e+00
44.000      1.39930e+00
45.000      9.18408e-01
46.000      5.74963e-01
47.000      3.50151e-01
48.000      2.21599e-01
49.000      1.71275e-01
50.000      1.90397e-01
51.000      2.81367e-01
52.000      4.56918e-01
53.000      7.36540e-01
54.000      1.14019e+00
55.000      1.67973e+00
56.000      2.34943e+00
57.000      3.11819e+00
58.000      3.92655e+00
59.000      4.69127e+00
60.000      5.31806e+00
61.000      5.72018e+00
62.000      5.83806e+00
63.000      5.65376e+00
64.000      5.19548e+00
65.000      4.53064e+00
66.000      3.74994e+00
67.000      2.94781e+00
68.000      2.20524e+00
69.000      1.57958e+00
70.000      1.10284e+00
71.000      7.86972e-01
72.000      6.32719e-01
73.000      6.38248e-01
74.000      8.04167e-01
75.000      1.13327e+00
76.000      1.62505e+00
77.000      2.26680e+00
78.000      3.02471e+00
79.000      3.83917e+00
80.000      4.62763e+00
81.000      5.29658e+00
82.000      5.76078e+00
83.000      5.96497e+00
84.000      5.90126e+00
85.000      5.61641e+00
86.000      5.20605e+00
87.000      4.79691e+00
88.000      4.52182e+00
89.000      4.49389e+00
90.000      4.78620e+00
91.000      5.42111e+00
92.000      6.37063e+00
93.000      7.56664e+00
94.000      8.91710e+00
95.000      1.03236e+01
96.000      1.16952e+01
97.000      1.29567e+01
98.000      1.40491e+01
99.000      1.49265e+01
100.000      1.55519e+01
101.000      1.58945e+01
102.000      1.59309e+01
103.000      1.56492e+01
104.000      1.50546e+01
105.000      1.41748e+01
106.000      1.30630e+01
107.000      1.17973e+01
108.000      1.04751e+01
109.000      9.20232e+00
110.000      8.07890e+00
111.000      7.18365e+00
112.000      6.56314e+00
113.000      6.22859e+00
114.000      6.16227e+00
115.000      6.33165e+00
116.000      6.70630e+00
117.000      7.27089e+00
118.000      8.02940e+00
119.000      8.99860e+00
120.000      1.01936e+01
121.000      1.16111e+01
122.000      1.32170e+01
123.000      1.49436e+01
124.000      1.66965e+01
125.000      1.83690e+01
126.000      1.98594e+01
127.000      2.10839e+01
128.000      2.19836e+01
129.000      2.25235e+01
130.000      2.26875e+01
131.000      2.24727e+01
132.000      2.18867e+01
133.000      2.09498e+01
134.000      1.97009e+01
135.000      1.82033e+01
136.000      1.65468e+01
137.000      1.48422e+01
138.000      1.32103e+01
139.000      1.17642e+01
140.000      1.05935e+01
141.000      9.75185e+00
142.000      9.25244e+00
143.000      9.07234e+00
144.000      9.16258e+00
145.000      9.46101e+00
146.000      9.90329e+00
147.000      1.04293e+01
148.000      1.09841e+01
149.000      1.15152e+01
150.000      1.19697e+01
151.000      1.22940e+01
152.000      1.24384e+01
153.000      1.23654e+01
154.000      1.20600e+01
155.000      1.15353e+01
156.000      1.08336e+01
157.000      1.00186e+01
158.000      9.16215e+00
159.000      8.32905e+00
160.000      7.56393e+00
161.000      6.88477e+00
162.000      6.28401e+00
163.000      5.73619e+00
164.000      5.20912e+00
165.000      4.67489e+00
166.000      4.11778e+00
167.000      3.53756e+00
168.000      2.94823e+00
169.000      2.37312e+00
170.000      1.83850e+00
171.000      1.36741e+00
172.000      9.75337e-01
173.000      6.68623e-01
174.000      4.45379e-01
175.000      2.98296e-01
176.000      2.18071e-01
177.000      1.96375e-01
178.000      2.27529e-01
179.000      3.08608e-01
180.000      4.38161e-01
181.000      6.14139e-01
182.000      8.31879e-01
183.000      1.08299e+00
184.000      1.35579e+00
185.000      1.63730e+00
186.000      1.91633e+00
187.000      2.18662e+00
188.000      2.44861e+00
189.000      2.70916e+00
190.000      2.97887e+00
191.000      3.26806e+00
192.000      3.58280e+00
193.000      3.92264e+00
194.000      4.28102e+00
195.000      4.64810e+00
196.000      5.01447e+00
197.000      5.37427e+00
198.000      5.72616e+00
199.000      6.07209e+00
200.000      6.41491e+00
201.000      6.75616e+00
202.000      7.09545e+00
203.000      7.43149e+00
204.000      7.76394e+00
205.000      8.09489e+00
206.000      8.42864e+00
207.000      8.76934e+00
208.000      9.11722e+00
209.000      9.46473e+00
210.000      9.79434e+00
211.000      1.00795e+01
212.000      1.02892e+01
213.000      1.03954e+01
214.000      1.03812e+01
215.000      1.02470e+01
216.000      1.00129e+01
217.000      9.71535e+00
218.000      9.39919e+00
219.000      9.10805e+00
220.000      8.87534e+00
221.000      8.71908e+00
222.000      8.64135e+00
223.000      8.63211e+00
224.000      8.67540e+00
225.000      8.75552e+00
226.000      8.86125e+00
227.000      8.98704e+00
228.000      9.13114e+00
229.000      9.29191e+00
230.000      9.46387e+00
231.000      9.63499e+00
232.000      9.78628e+00
233.000      9.89386e+00
234.000      9.93291e+00
235.000      9.88250e+00
236.000      9.73019e+00
237.000      9.47538e+00
238.000      9.13072e+00
239.000      8.72109e+00
240.000      8.28031e+00
241.000      7.84612e+00
242.000      7.45459e+00
243.000      7.13519e+00
244.000      6.90749e+00
245.000      6.77966e+00
246.000      6.74814e+00
247.000      6.79774e+00
248.000      6.90190e+00
249.000      7.02346e+00
250.000      7.11732e+00
251.000      7.13585e+00
252.000      7.03703e+00
253.000      6.79363e+00
254.000      6.40037e+00
255.000      5.87651e+00
256.000      5.26217e+00
257.000      4.60956e+00
258.000      3.97168e+00
259.000      3.39216e+00
260.000      2.89883e+00
261.000      2.50212e+00
262.000      2.19732e+00
263.000      1.96902e+00
264.000      1.79594e+00
265.000      1.65522e+00
266.000      1.52592e+00
267.000      1.39182e+00
268.000      1.24340e+00
269.000      1.07868e+00
270.000      9.02541e-01
271.000      7.24522e-01
272.000      5.55840e-01
273.000      4.06376e-01
274.000      2.82579e-01
275.000      1.86716e-01
276.000      1.17383e-01
277.000      7.08364e-02
278.000      4.25837e-02
279.000      2.88121e-02
280.000      2.74669e-02
281.000      3.89608e-02
282.000      6.65505e-02
283.000      1.16347e-01
284.000      1.96814e-01
285.000      3.17563e-01
286.000      4.87390e-01
287.000      7.11804e-01
288.000      9.90717e-01
289.000      1.31727e+00
290.000      1.67864e+00
291.000      2.05916e+00
292.000      2.44489e+00
293.000      2.82820e+00
294.000      3.21021e+00
295.000      3.59998e+00
296.000      4.01044e+00
297.000      4.45275e+00
298.000      4.93156e+00
299.000      5.44319e+00
300.000      5.97728e+00
301.000      6.52078e+00
302.000      7.06217e+00
303.000      7.59383e+00
304.000      8.11184e+00
305.000      8.61368e+00
306.000      9.09544e+00
307.000      9.55002e+00
308.000      9.96749e+00
309.000      1.03373e+01
310.000      1.06514e+01
311.000      1.09079e+01
312.000      1.11127e+01
313.000      1.12792e+01
314.000      1.14266e+01
315.000      1.15763e+01
316.000      1.17485e+01
317.000      1.19597e+01
318.000      1.22230e+01
319.000      1.25502e+01
320.000      1.29555e+01
321.000      1.34596e+01
322.000      1.40916e+01
323.000      1.48898e+01
324.000      1.58976e+01
325.000      1.71562e+01
326.000      1.86939e+01
327.000      2.05142e+01
328.000      2.25850e+01
329.000      2.48331e+01
330.000      2.71471e+01
331.000      2.93882e+01
332.000      3.14104e+01
333.000      3.30828e+01
334.000      3.43113e+01
335.000      3.50537e+01
336.000      3.53253e+01
337.000      3.51952e+01
338.000      3.47735e+01
339.000      3.41942e+01
340.000      3.35937e+01
341.000      3.30901e+01
342.000      3.27650e+01
343.000      3.26502e+01
344.000      3.27221e+01
345.000      3.29058e+01
346.000      3.30880e+01
347.000      3.31380e+01
348.000      3.29308e+01
349.000      3.23692e+01
350.000      3.13979e+01
351.000      3.00101e+01
352.000      2.82442e+01
353.000      2.61738e+01
354.000      2.38959e+01
355.000      2.15173e+01
356.000      1.91446e+01
357.000      1.68754e+01
358.000      1.47919e+01
359.000      1.29564e+01
360.000      1.14085e+01
361.000      1.01648e+01
362.000      9.21998e+00
363.000      8.55019e+00
364.000      8.11702e+00
365.000      7.87083e+00
366.000      7.75343e+00
367.000      7.70049e+00
368.000      7.64509e+00
369.000      7.52363e+00
370.000      7.28444e+00
371.000      6.89751e+00
372.000      6.36272e+00
373.000      5.71333e+00
374.000      5.01303e+00
375.000      4.34661e+00
376.000      3.80661e+00
377.000      3.47933e+00
378.000      3.43326e+00
379.000      3.71182e+00
380.000      4.33036e+00
381.000      5.27636e+00
382.000      6.51173e+00
383.000      7.97625e+00
384.000      9.59220e+00
385.000      1.12705e+01
386.000      1.29182e+01
387.000      1.44463e+01
388.000      1.57764e+01
389.000      1.68449e+01
390.000      1.76029e+01
391.000      1.80150e+01
392.000      1.80565e+01
393.000      1.77134e+01
394.000      1.69854e+01
395.000      1.58911e+01
396.000      1.44740e+01
397.000      1.28046e+01
398.000      1.09780e+01
399.000      9.10477e+00
400.000      7.29731e+00
401.000      5.65530e+00
402.000      4.25301e+00
403.000      3.13188e+00
404.000      2.29916e+00
405.000      1.73214e+00
406.000      1.38600e+00
407.000      1.20349e+00
408.000      1.12445e+00
409.000      1.09418e+00
410.000      1.06959e+00
411.000      1.02274e+00
412.000      9.41456e-01
413.000      8.27150e-01
414.000      6.90557e-01
415.000      5.46617e-01
416.000      4.09788e-01
417.000      2.90796e-01
418.000      1.95278e-01
419.000      1.24078e-01
420.000      7.45910e-02
421.000      4.24238e-02
422.000      2.28275e-02
423.000      1.16206e-02
424.000      5.59650e-03
425.000      2.54991e-03
426.000      1.09913e-03
427.000      4.48224e-04
428.000      1.72924e-04
429.000      6.31155e-05
430.000      2.17938e-05
431.000      7.11947e-06
432.000      2.20029e-06
433.000      6.43324e-07
434.000      1.77950e-07
435.000      4.65674e-08
436.000      1.15288e-08
437.000      2.70026e-09
438.000      5.98333e-10
439.000      1.25429e-10
440.000      2.48755e-11
441.000      4.66726e-12
442.000      8.28458e-13
443.000      1.39122e-13
444.000      2.21024e-14
445.000      3.32201e-15
446.000      4.72367e-16
447.000      6.35442e-17
448.000      8.08704e-18
449.000      9.73691e-19
450.000      1.10910e-19
451.000      1.19519e-20
452.000      1.21849e-21
453.000      1.17523e-22
454.000      1.07236e-23
455.000      9.25720e-25
456.000      7.56022e-26
457.000      5.84126e-27
458.000      4.26969e-28
459.000      2.95260e-29
460.000      1.93165e-30
461.000      1.19556e-31
462.000      7.00055e-33
463.000      3.87802e-34
464.000      2.03238e-35
465.000      1.00767e-36
466.000      4.72660e-38
467.000      2.09748e-39
468.000      8.80569e-41
469.000      3.49741e-42
470.000      1.31416e-43
471.000      4.67161e-45
472.000      1.57110e-46
473.000      4.99870e-48
474.000      1.50462e-49
475.000      4.28467e-51
476.000      1.15431e-52
477.000      2.94204e-54
478.000      7.09398e-56
479.000      1.61826e-57
480.000      3.49242e-59
481.000      7.13052e-61
482.000      1.37732e-62
483.000      2.51689e-64
484.000      4.35122e-66
485.000      7.11666e-68
486.000      1.10118e-69
487.000      1.61198e-71
488.000      2.23243e-73
489.000      2.92491e-75
490.000      3.62548e-77
491.000      4.25144e-79
492.000      4.71655e-81
493.000      4.95029e-83
494.000      4.91534e-85
495.000      4.61737e-87
496.000      4.10349e-89
497.000      3.45009e-91
498.000      2.74425e-93
499.000      2.06507e-95
500.000      1.47016e-97
