# Gaussian folded, width=10 cm^-1
# [cm^-1] arbitrary
0.000      3.00000e+00
1.000      2.91796e+00
2.000      2.68508e+00
3.000      2.33749e+00
4.000      1.92514e+00
5.000      1.50000e+00
6.000      1.10570e+00
7.000      7.71085e-01
8.000      5.08727e-01
9.000      3.17529e-01
10.000      1.87500e-01
11.000      1.04746e-01
12.000      5.53594e-02
13.000      2.76808e-02
14.000      1.30977e-02
15.000      5.87442e-03
16.000      2.52876e-03
17.000      1.13895e-03
18.000      7.92595e-04
19.000      1.26257e-03
20.000      2.93854e-03
21.000      7.03993e-03
22.000      1.61556e-02
23.000      3.51521e-02
24.000      7.24211e-02
25.000      1.41249e-01
26.000      2.60797e-01
27.000      4.55843e-01
28.000      7.54262e-01
29.000      1.18148e+00
30.000      1.75195e+00
31.000      2.45931e+00
32.000      3.26811e+00
33.000      4.11124e+00
34.000      4.89598e+00
35.000      5.51945e+00
36.000      5.89032e+00
37.000      5.95069e+00
38.000      5.69088e+00
39.000      5.15197e+00
40.000      4.41516e+00
41.000      3.58178e+00
42.000      2.75066e+00
43.000      1.99984e+00
44.000      1.37691e+00
45.000      8.98912e-01
46.000      5.59183e-01
47.000      3.37683e-01
48.000      2.11160e-01
49.000      1.61076e-01
50.000      1.78520e-01
51.000      2.66171e-01
52.000      4.37551e-01
53.000      7.13543e-01
54.000      1.11605e+00
55.000      1.65905e+00
56.000      2.33852e+00
57.000      3.12370e+00
58.000      3.95353e+00
59.000      4.74106e+00
60.000      5.38690e+00
61.000      5.79932e+00
62.000      5.91550e+00
63.000      5.71722e+00
64.000      5.23562e+00
65.000      4.54332e+00
66.000      3.73683e+00
67.000      2.91531e+00
68.000      2.16229e+00
69.000      1.53542e+00
70.000      1.06528e+00
71.000      7.61727e-01
72.000      6.23559e-01
73.000      6.47485e-01
74.000      8.32984e-01
75.000      1.18156e+00
76.000      1.69073e+00
77.000      2.34501e+00
78.000      3.10742e+00
79.000      3.91563e+00
80.000      4.68602e+00
81.000      5.32640e+00
82.000      5.75547e+00
83.000      5.92358e+00
84.000      5.82874e+00
85.000      5.52237e+00
86.000      5.10247e+00
87.000      4.69573e+00
88.000      4.43314e+00
89.000      4.42501e+00
90.000      4.74122e+00
91.000      5.40042e+00
92.000      6.37018e+00
93.000      7.57709e+00
94.000      8.92402e+00
95.000      1.03097e+01
96.000      1.16453e+01
97.000      1.28639e+01
98.000      1.39208e+01
99.000      1.47865e+01
100.000      1.54367e+01
101.000      1.58434e+01
102.000      1.59732e+01
103.000      1.57925e+01
104.000      1.52788e+01
105.000      1.44349e+01
106.000      1.32990e+01
107.000      1.19477e+01
108.000      1.04887e+01
109.000      9.04591e+00
110.000      7.73834e+00
111.000      6.66136e+00
112.000      5.87416e+00
113.000      5.39787e+00
114.000      5.22414e+00
115.000      5.33107e+00
116.000      5.70056e+00
117.000      6.33066e+00
118.000      7.23818e+00
119.000      8.45015e+00
120.000      9.98633e+00
121.000      1.18384e+01
122.000      1.39529e+01
123.000      1.62243e+01
124.000      1.85018e+01
125.000      2.06097e+01
126.000      2.23758e+01
127.000      2.36609e+01
128.000      2.43806e+01
129.000      2.45141e+01
130.000      2.40985e+01
131.000      2.32125e+01
132.000      2.19560e+01
133.000      2.04315e+01
134.000      1.87343e+01
135.000      1.69507e+01
136.000      1.51620e+01
137.000      1.34500e+01
138.000      1.18998e+01
139.000      1.05956e+01
140.000      9.61210e+00
141.000      9.00227e+00
142.000      8.78627e+00
143.000      8.94497e+00
144.000      9.42036e+00
145.000      1.01229e+01
146.000      1.09445e+01
147.000      1.17730e+01
148.000      1.25068e+01
149.000      1.30654e+01
150.000      1.33947e+01
151.000      1.34688e+01
152.000      1.32873e+01
153.000      1.28709e+01
154.000      1.22561e+01
155.000      1.14901e+01
156.000      1.06258e+01
157.000      9.71628e+00
158.000      8.80912e+00
159.000      7.94124e+00
160.000      7.13479e+00
161.000      6.39583e+00
162.000      5.71626e+00
163.000      5.07916e+00
164.000      4.46593e+00
165.000      3.86320e+00
166.000      3.26752e+00
167.000      2.68639e+00
168.000      2.13569e+00
169.000      1.63464e+00
170.000      1.20023e+00
171.000      8.43003e-01
172.000      5.65108e-01
173.000      3.60915e-01
174.000      2.19313e-01
175.000      1.26697e-01
176.000      6.96299e-02
177.000      3.66562e-02
178.000      1.91524e-02
179.000      1.14532e-02
180.000      1.06112e-02
181.000      1.61112e-02
182.000      2.97365e-02
183.000      5.56246e-02
184.000      1.00417e-01
185.000      1.73310e-01
186.000      2.85777e-01
187.000      4.50795e-01
188.000      6.81534e-01
189.000      9.89637e-01
190.000      1.38341e+00
191.000      1.86621e+00
192.000      2.43544e+00
193.000      3.08206e+00
194.000      3.79077e+00
195.000      4.54067e+00
196.000      5.30625e+00
197.000      6.05893e+00
198.000      6.76915e+00
199.000      7.40919e+00
200.000      7.95651e+00
201.000      8.39725e+00
202.000      8.72921e+00
203.000      8.96345e+00
204.000      9.12381e+00
205.000      9.24431e+00
206.000      9.36431e+00
207.000      9.52243e+00
208.000      9.75006e+00
209.000      1.00656e+01
210.000      1.04706e+01
211.000      1.09483e+01
212.000      1.14658e+01
213.000      1.19791e+01
214.000      1.24409e+01
215.000      1.28091e+01
216.000      1.30549e+01
217.000      1.31669e+01
218.000      1.31511e+01
219.000      1.30268e+01
220.000      1.28186e+01
221.000      1.25486e+01
222.000      1.22302e+01
223.000      1.18660e+01
224.000      1.14498e+01
225.000      1.09723e+01
226.000      1.04284e+01
227.000      9.82334e+00
228.000      9.17587e+00
229.000      8.51765e+00
230.000      7.88882e+00
231.000      7.33119e+00
232.000      6.88079e+00
233.000      6.56183e+00
234.000      6.38318e+00
235.000      6.33770e+00
236.000      6.40387e+00
237.000      6.54910e+00
238.000      6.73395e+00
239.000      6.91726e+00
240.000      7.06215e+00
241.000      7.14227e+00
242.000      7.14698e+00
243.000      7.08349e+00
244.000      6.97441e+00
245.000      6.85045e+00
246.000      6.74004e+00
247.000      6.65919e+00
248.000      6.60538e+00
249.000      6.55772e+00
250.000      6.48370e+00
251.000      6.34987e+00
252.000      6.13259e+00
253.000      5.82529e+00
254.000      5.43982e+00
255.000      5.00230e+00
256.000      4.54530e+00
257.000      4.09930e+00
258.000      3.68604e+00
259.000      3.31523e+00
260.000      2.98496e+00
261.000      2.68501e+00
262.000      2.40174e+00
263.000      2.12295e+00
264.000      1.84164e+00
265.000      1.55762e+00
266.000      1.27698e+00
267.000      1.00986e+00
268.000      7.67331e-01
269.000      5.58443e-01
270.000      3.88299e-01
271.000      2.57447e-01
272.000      1.62503e-01
273.000      9.75328e-02
274.000      5.56067e-02
275.000      3.00942e-02
276.000      1.54586e-02
277.000      7.55760e-03
278.000      3.58614e-03
279.000      1.84233e-03
280.000      1.47647e-03
281.000      2.33349e-03
282.000      4.95661e-03
283.000      1.07894e-02
284.000      2.25852e-02
285.000      4.49864e-02
286.000      8.51565e-02
287.000      1.53235e-01
288.000      2.62282e-01
289.000      4.27351e-01
290.000      6.63429e-01
291.000      9.82337e-01
292.000      1.38908e+00
293.000      1.87867e+00
294.000      2.43452e+00
295.000      3.02953e+00
296.000      3.63002e+00
297.000      4.20198e+00
298.000      4.71818e+00
299.000      5.16399e+00
300.000      5.54039e+00
301.000      5.86307e+00
302.000      6.15795e+00
303.000      6.45444e+00
304.000      6.77851e+00
305.000      7.14778e+00
306.000      7.56973e+00
307.000      8.04313e+00
308.000      8.56139e+00
309.000      9.11588e+00
310.000      9.69744e+00
311.000      1.02958e+01
312.000      1.08980e+01
313.000      1.14875e+01
314.000      1.20457e+01
315.000      1.25564e+01
316.000      1.30110e+01
317.000      1.34129e+01
318.000      1.37794e+01
319.000      1.41395e+01
320.000      1.45298e+01
321.000      1.49903e+01
322.000      1.55608e+01
323.000      1.62785e+01
324.000      1.71765e+01
325.000      1.82812e+01
326.000      1.96076e+01
327.000      2.11534e+01
328.000      2.28922e+01
329.000      2.47696e+01
330.000      2.67032e+01
331.000      2.85900e+01
332.000      3.03187e+01
333.000      3.17877e+01
334.000      3.29227e+01
335.000      3.36908e+01
336.000      3.41063e+01
337.000      3.42270e+01
338.000      3.41409e+01
339.000      3.39474e+01
340.000      3.37362e+01
341.000      3.35712e+01
342.000      3.34806e+01
343.000      3.34558e+01
344.000      3.34579e+01
345.000      3.34293e+01
346.000      3.33060e+01
347.000      3.30290e+01
348.000      3.25516e+01
349.000      3.18425e+01
350.000      3.08863e+01
351.000      2.96807e+01
352.000      2.82351e+01
353.000      2.65693e+01
354.000      2.47144e+01
355.000      2.27145e+01
356.000      2.06274e+01
357.000      1.85249e+01
358.000      1.64882e+01
359.000      1.46017e+01
360.000      1.29433e+01
361.000      1.15739e+01
362.000      1.05277e+01
363.000      9.80719e+00
364.000      9.38156e+00
365.000      9.19217e+00
366.000      9.16173e+00
367.000      9.20596e+00
368.000      9.24482e+00
369.000      9.21113e+00
370.000      9.05577e+00
371.000      8.74982e+00
372.000      8.28506e+00
373.000      7.67393e+00
374.000      6.94953e+00
375.000      6.16493e+00
376.000      5.39053e+00
377.000      4.70858e+00
378.000      4.20459e+00
379.000      3.95678e+00
380.000      4.02561e+00
381.000      4.44547e+00
382.000      5.22005e+00
383.000      6.32219e+00
384.000      7.69741e+00
385.000      9.27000e+00
386.000      1.09497e+01
387.000      1.26377e+01
388.000      1.42310e+01
389.000      1.56265e+01
390.000      1.67248e+01
391.000      1.74366e+01
392.000      1.76912e+01
393.000      1.74470e+01
394.000      1.67004e+01
395.000      1.54921e+01
396.000      1.39057e+01
397.000      1.20597e+01
398.000      1.00926e+01
399.000      8.14472e+00
400.000      6.33998e+00
401.000      4.77206e+00
402.000      3.49661e+00
403.000      2.53037e+00
404.000      1.85631e+00
405.000      1.43224e+00
406.000      1.20100e+00
407.000      1.10024e+00
408.000      1.07082e+00
409.000      1.06334e+00
410.000      1.04239e+00
411.000      9.88304e-01
412.000      8.96263e-01
413.000      7.73082e-01
414.000      6.32502e-01
415.000      4.90189e-01
416.000      3.59624e-01
417.000      2.49679e-01
418.000      1.64019e-01
419.000      1.01943e-01
420.000      5.99447e-02
421.000      3.33481e-02
422.000      1.75514e-02
423.000      8.73921e-03
424.000      4.11672e-03
425.000      1.83463e-03
426.000      7.73505e-04
427.000      3.08529e-04
428.000      1.16425e-04
429.000      4.15637e-05
430.000      1.40378e-05
431.000      4.48542e-06
432.000      1.35589e-06
433.000      3.87759e-07
434.000      1.04910e-07
435.000      2.68529e-08
436.000      6.50254e-09
437.000      1.48968e-09
438.000      3.22863e-10
439.000      6.62006e-11
440.000      1.28417e-11
441.000      2.35669e-12
442.000      4.09166e-13
443.000      6.72069e-14
444.000      1.04435e-14
445.000      1.53531e-15
446.000      2.13532e-16
447.000      2.80962e-17
448.000      3.49744e-18
449.000      4.11879e-19
450.000      4.58889e-20
451.000      4.83685e-21
452.000      4.82320e-22
453.000      4.55015e-23
454.000      4.06101e-24
455.000      3.42894e-25
456.000      2.73907e-26
457.000      2.06997e-27
458.000      1.47993e-28
459.000      1.00101e-29
460.000      6.40548e-31
461.000      3.87778e-32
462.000      2.22091e-33
463.000      1.20337e-34
464.000      6.16854e-36
465.000      2.99146e-37
466.000      1.37247e-38
467.000      5.95717e-40
468.000      2.44621e-41
469.000      9.50312e-43
470.000      3.49265e-44
471.000      1.21440e-45
472.000      3.99473e-47
473.000      1.24317e-48
474.000      3.66008e-50
475.000      1.01945e-51
476.000      2.68635e-53
477.000      6.69693e-55
478.000      1.57945e-56
479.000      3.52415e-58
480.000      7.43909e-60
481.000      1.48560e-61
482.000      2.80675e-63
483.000      5.01675e-65
484.000      8.48317e-67
485.000      1.35710e-68
486.000      2.05392e-70
487.000      2.94084e-72
488.000      3.98362e-74
489.000      5.10508e-76
490.000      6.18933e-78
491.000      7.09909e-80
492.000      7.70335e-82
493.000      7.90814e-84
494.000      7.68044e-86
495.000      7.05693e-88
496.000      6.13427e-90
497.000      5.04461e-92
498.000      3.92473e-94
499.000      2.88875e-96
500.000      2.01154e-98
