# Gaussian folded, width=10 cm^-1
# [cm^-1] arbitrary
0.000      3.00000e+00
1.000      2.91796e+00
2.000      2.68508e+00
3.000      2.33749e+00
4.000      1.92514e+00
5.000      1.50000e+00
6.000      1.10570e+00
7.000      7.71085e-01
8.000      5.08727e-01
9.000      3.17530e-01
10.000      1.87500e-01
11.000      1.04747e-01
12.000      5.53630e-02
13.000      2.76930e-02
14.000      1.31361e-02
15.000      5.98881e-03
16.000      2.85057e-03
17.000      1.99480e-03
18.000      2.94361e-03
19.000      6.37005e-03
20.000      1.43916e-02
21.000      3.12833e-02
22.000      6.45704e-02
23.000      1.26307e-01
24.000      2.34090e-01
25.000      4.11044e-01
26.000      6.83843e-01
27.000      1.07795e+00
28.000      1.60998e+00
29.000      2.27844e+00
30.000      3.05533e+00
31.000      3.88232e+00
32.000      4.67460e+00
33.000      5.33368e+00
34.000      5.76691e+00
35.000      5.90883e+00
36.000      5.73728e+00
37.000      5.27913e+00
38.000      4.60344e+00
39.000      3.80442e+00
40.000      2.98028e+00
41.000      2.21430e+00
42.000      1.56334e+00
43.000      1.05542e+00
44.000      6.95036e-01
45.000      4.72895e-01
46.000      3.76208e-01
47.000      3.96724e-01
48.000      5.34660e-01
49.000      7.97928e-01
50.000      1.19694e+00
51.000      1.73616e+00
52.000      2.40445e+00
53.000      3.16720e+00
54.000      3.96347e+00
55.000      4.71053e+00
56.000      5.31637e+00
57.000      5.69763e+00
58.000      5.79821e+00
59.000      5.60276e+00
60.000      5.14057e+00
61.000      4.47857e+00
62.000      3.70584e+00
63.000      2.91484e+00
64.000      2.18509e+00
65.000      1.57358e+00
66.000      1.11331e+00
67.000      8.18457e-01
68.000      6.92746e-01
69.000      7.37099e-01
70.000      9.53402e-01
71.000      1.34286e+00
72.000      1.89943e+00
73.000      2.60093e+00
74.000      3.40180e+00
75.000      4.23182e+00
76.000      5.00377e+00
77.000      5.63010e+00
78.000      6.04471e+00
79.000      6.22353e+00
80.000      6.19639e+00
81.000      6.04511e+00
82.000      5.88717e+00
83.000      5.84911e+00
84.000      6.03765e+00
85.000      6.51685e+00
86.000      7.29777e+00
87.000      8.34208e+00
88.000      9.57668e+00
89.000      1.09127e+01
90.000      1.22616e+01
91.000      1.35440e+01
92.000      1.46904e+01
93.000      1.56367e+01
94.000      1.63220e+01
95.000      1.66905e+01
96.000      1.67007e+01
97.000      1.63382e+01
98.000      1.56265e+01
99.000      1.46307e+01
100.000      1.34508e+01
101.000      1.22066e+01
102.000      1.10165e+01
103.000      9.97753e+00
104.000      9.15197e+00
105.000      8.56315e+00
106.000      8.20251e+00
107.000      8.04426e+00
108.000      8.06316e+00
109.000      8.24934e+00
110.000      8.61533e+00
111.000      9.19278e+00
112.000      1.00197e+01
113.000      1.11219e+01
114.000      1.24951e+01
115.000      1.40924e+01
116.000      1.58232e+01
117.000      1.75633e+01
118.000      1.91742e+01
119.000      2.05267e+01
120.000      2.15212e+01
121.000      2.21010e+01
122.000      2.22553e+01
123.000      2.20140e+01
124.000      2.14372e+01
125.000      2.06044e+01
126.000      1.96043e+01
127.000      1.85274e+01
128.000      1.74592e+01
129.000      1.64732e+01
130.000      1.56237e+01
131.000      1.49392e+01
132.000      1.44193e+01
133.000      1.40364e+01
134.000      1.37430e+01
135.000      1.34831e+01
136.000      1.32044e+01
137.000      1.28682e+01
138.000      1.24548e+01
139.000      1.19630e+01
140.000      1.14068e+01
141.000      1.08085e+01
142.000      1.01928e+01
143.000      9.58270e+00
144.000      8.99748e+00
145.000      8.45272e+00
146.000      7.96106e+00
147.000      7.53266e+00
148.000      7.17426e+00
149.000      6.88691e+00
150.000      6.66305e+00
151.000      6.48423e+00
152.000      6.32121e+00
153.000      6.13739e+00
154.000      5.89533e+00
155.000      5.56494e+00
156.000      5.13087e+00
157.000      4.59679e+00
158.000      3.98506e+00
159.000      3.33195e+00
160.000      2.67997e+00
161.000      2.06944e+00
162.000      1.53177e+00
163.000      1.08571e+00
164.000      7.36977e-01
165.000      4.80789e-01
166.000      3.05996e-01
167.000      1.99711e-01
168.000      1.51390e-01
169.000      1.55765e-01
170.000      2.14315e-01
171.000      3.35106e-01
172.000      5.30913e-01
173.000      8.15741e-01
174.000      1.20018e+00
175.000      1.68661e+00
176.000      2.26562e+00
177.000      2.91507e+00
178.000      3.60263e+00
179.000      4.29134e+00
180.000      4.94680e+00
181.000      5.54370e+00
182.000      6.06979e+00
183.000      6.52641e+00
184.000      6.92582e+00
185.000      7.28659e+00
186.000      7.62860e+00
187.000      7.96857e+00
188.000      8.31712e+00
189.000      8.67741e+00
190.000      9.04568e+00
191.000      9.41351e+00
192.000      9.77114e+00
193.000      1.01108e+01
194.000      1.04291e+01
195.000      1.07270e+01
196.000      1.10086e+01
197.000      1.12788e+01
198.000      1.15407e+01
199.000      1.17947e+01
200.000      1.20382e+01
201.000      1.22667e+01
202.000      1.24751e+01
203.000      1.26596e+01
204.000      1.28193e+01
205.000      1.29571e+01
206.000      1.30802e+01
207.000      1.31984e+01
208.000      1.33212e+01
209.000      1.34541e+01
210.000      1.35960e+01
211.000      1.37394e+01
212.000      1.38735e+01
213.000      1.39898e+01
214.000      1.40879e+01
215.000      1.41783e+01
216.000      1.42808e+01
217.000      1.44189e+01
218.000      1.46115e+01
219.000      1.48663e+01
220.000      1.51762e+01
221.000      1.55211e+01
222.000      1.58738e+01
223.000      1.62088e+01
224.000      1.65104e+01
225.000      1.67783e+01
226.000      1.70280e+01
227.000      1.72859e+01
228.000      1.75799e+01
229.000      1.79275e+01
230.000      1.83253e+01
231.000      1.87434e+01
232.000      1.91264e+01
233.000      1.94021e+01
234.000      1.94956e+01
235.000      1.93457e+01
236.000      1.89192e+01
237.000      1.82200e+01
238.000      1.72914e+01
239.000      1.62094e+01
240.000      1.50724e+01
241.000      1.39862e+01
242.000      1.30499e+01
243.000      1.23444e+01
244.000      1.19243e+01
245.000      1.18133e+01
246.000      1.20027e+01
247.000      1.24509e+01
248.000      1.30860e+01
249.000      1.38106e+01
250.000      1.45107e+01
251.000      1.50684e+01
252.000      1.53772e+01
253.000      1.53582e+01
254.000      1.49727e+01
255.000      1.42287e+01
256.000      1.31783e+01
257.000      1.19080e+01
258.000      1.05222e+01
259.000      9.12465e+00
260.000      7.80351e+00
261.000      6.62112e+00
262.000      5.61160e+00
263.000      4.78419e+00
264.000      4.13024e+00
265.000      3.63097e+00
266.000      3.26376e+00
267.000      3.00609e+00
268.000      2.83703e+00
269.000      2.73698e+00
270.000      2.68662e+00
271.000      2.66588e+00
272.000      2.65358e+00
273.000      2.62814e+00
274.000      2.56959e+00
275.000      2.46238e+00
276.000      2.29827e+00
277.000      2.07833e+00
278.000      1.81313e+00
279.000      1.52082e+00
280.000      1.22354e+00
281.000      9.43198e-01
282.000      6.97830e-01
283.000      4.99580e-01
284.000      3.54506e-01
285.000      2.63897e-01
286.000      2.26254e-01
287.000      2.39046e-01
288.000      2.99600e-01
289.000      4.05031e-01
290.000      5.51566e-01
291.000      7.33945e-01
292.000      9.45481e-01
293.000      1.17900e+00
294.000      1.42829e+00
295.000      1.68926e+00
296.000      1.96002e+00
297.000      2.23969e+00
298.000      2.52640e+00
299.000      2.81579e+00
300.000      3.10092e+00
301.000      3.37405e+00
302.000      3.62962e+00
303.000      3.86669e+00
304.000      4.08975e+00
305.000      4.30712e+00
306.000      4.52783e+00
307.000      4.75828e+00
308.000      5.00058e+00
309.000      5.25297e+00
310.000      5.51215e+00
311.000      5.77620e+00
312.000      6.04663e+00
313.000      6.32873e+00
314.000      6.63053e+00
315.000      6.96102e+00
316.000      7.32882e+00
317.000      7.74180e+00
318.000      8.20757e+00
319.000      8.73407e+00
320.000      9.32963e+00
321.000      1.00022e+01
322.000      1.07579e+01
323.000      1.16006e+01
324.000      1.25308e+01
325.000      1.35469e+01
326.000      1.46454e+01
327.000      1.58212e+01
328.000      1.70659e+01
329.000      1.83656e+01
330.000      1.96985e+01
331.000      2.10337e+01
332.000      2.23320e+01
333.000      2.35490e+01
334.000      2.46403e+01
335.000      2.55670e+01
336.000      2.63006e+01
337.000      2.68267e+01
338.000      2.71458e+01
339.000      2.72718e+01
340.000      2.72279e+01
341.000      2.70401e+01
342.000      2.67295e+01
343.000      2.63054e+01
344.000      2.57620e+01
345.000      2.50780e+01
346.000      2.42226e+01
347.000      2.31646e+01
348.000      2.18845e+01
349.000      2.03847e+01
350.000      1.86976e+01
351.000      1.68861e+01
352.000      1.50384e+01
353.000      1.32562e+01
354.000      1.16393e+01
355.000      1.02704e+01
356.000      9.20225e+00
357.000      8.45101e+00
358.000      7.99552e+00
359.000      7.78284e+00
360.000      7.73845e+00
361.000      7.77875e+00
362.000      7.82361e+00
363.000      7.80685e+00
364.000      7.68317e+00
365.000      7.43108e+00
366.000      7.05211e+00
367.000      6.56710e+00
368.000      6.01088e+00
369.000      5.42626e+00
370.000      4.85828e+00
371.000      4.34947e+00
372.000      3.93630e+00
373.000      3.64702e+00
374.000      3.50071e+00
375.000      3.50724e+00
376.000      3.66783e+00
377.000      3.97603e+00
378.000      4.41889e+00
379.000      4.97805e+00
380.000      5.63056e+00
381.000      6.34927e+00
382.000      7.10287e+00
383.000      7.85601e+00
384.000      8.57000e+00
385.000      9.20454e+00
386.000      9.72049e+00
387.000      1.00835e+01
388.000      1.02676e+01
389.000      1.02585e+01
390.000      1.00548e+01
391.000      9.66818e+00
392.000      9.12084e+00
393.000      8.44212e+00
394.000      7.66457e+00
395.000      6.82081e+00
396.000      5.94193e+00
397.000      5.05721e+00
398.000      4.19453e+00
399.000      3.38035e+00
400.000      2.63861e+00
401.000      1.98866e+00
402.000      1.44289e+00
403.000      1.00514e+00
404.000      6.70705e-01
405.000      4.27841e-01
406.000      2.60470e-01
407.000      1.51133e-01
408.000      8.34829e-02
409.000      4.38603e-02
410.000      2.19004e-02
411.000      1.03865e-02
412.000      4.67626e-03
413.000      1.99782e-03
414.000      8.09629e-04
415.000      3.11141e-04
416.000      1.13359e-04
417.000      3.91463e-05
418.000      1.28107e-05
419.000      3.97224e-06
420.000      1.16684e-06
421.000      3.24670e-07
422.000      8.55622e-08
423.000      2.13543e-08
424.000      5.04673e-09
425.000      1.12934e-09
426.000      2.39271e-10
427.000      4.79936e-11
428.000      9.11329e-12
429.000      1.63810e-12
430.000      2.78716e-13
431.000      4.48864e-14
432.000      6.84199e-15
433.000      9.87073e-16
434.000      1.34772e-16
435.000      1.74148e-17
436.000      2.12959e-18
437.000      2.46445e-19
438.000      2.69885e-20
439.000      2.79681e-21
440.000      2.74261e-22
441.000      2.54492e-23
442.000      2.23452e-24
443.000      1.85648e-25
444.000      1.45944e-26
445.000      1.08558e-27
446.000      7.64042e-29
447.000      5.08797e-30
448.000      3.20583e-31
449.000      1.91118e-32
450.000      1.07801e-33
451.000      5.75306e-35
452.000      2.90490e-36
453.000      1.38776e-37
454.000      6.27256e-39
455.000      2.68239e-40
456.000      1.08528e-41
457.000      4.15438e-43
458.000      1.50456e-44
459.000      5.15524e-46
460.000      1.67119e-47
461.000      5.12552e-49
462.000      1.48725e-50
463.000      4.08283e-52
464.000      1.06040e-53
465.000      2.60561e-55
466.000      6.05728e-57
467.000      1.33221e-58
468.000      2.77203e-60
469.000      5.45693e-62
470.000      1.01631e-63
471.000      1.79071e-65
472.000      2.98505e-67
473.000      4.70763e-69
474.000      7.02387e-71
475.000      9.91457e-73
476.000      1.32402e-74
477.000      1.67277e-76
478.000      1.99940e-78
479.000      2.26092e-80
480.000      2.41876e-82
481.000      2.44805e-84
482.000      2.34406e-86
483.000      2.12343e-88
484.000      1.81982e-90
485.000      1.47549e-92
486.000      1.13179e-94
487.000      8.21325e-97
488.000      5.63876e-99
489.000     3.66245e-101
490.000     2.25050e-103
491.000     1.30829e-105
492.000     7.19532e-108
493.000     3.74381e-110
494.000     1.84288e-112
495.000     8.58220e-115
496.000     3.78111e-117
497.000     1.57600e-119
498.000     6.21462e-122
499.000     2.31841e-124
500.000     8.18246e-127
