# Gaussian folded, width=10 cm^-1
# [cm^-1] arbitrary
0.000      3.00000e+00
1.000      2.91796e+00
2.000      2.68508e+00
3.000      2.33749e+00
4.000      1.92514e+00
5.000      1.50000e+00
6.000      1.10570e+00
7.000      7.71085e-01
8.000      5.08727e-01
9.000      3.17530e-01
10.000      1.87502e-01
11.000      1.04753e-01
12.000      5.53833e-02
13.000      2.77551e-02
14.000      1.33158e-02
15.000      6.48032e-03
16.000      4.12109e-03
17.000      5.09708e-03
18.000      1.00969e-02
19.000      2.19397e-02
20.000      4.63654e-02
21.000      9.31978e-02
22.000      1.77537e-01
23.000      3.20332e-01
24.000      5.47404e-01
25.000      8.85962e-01
26.000      1.35809e+00
27.000      1.97179e+00
28.000      2.71153e+00
29.000      3.53185e+00
30.000      4.35739e+00
31.000      5.09210e+00
32.000      5.63660e+00
33.000      5.91008e+00
34.000      5.86991e+00
35.000      5.52258e+00
36.000      4.92206e+00
37.000      4.15633e+00
38.000      3.32677e+00
39.000      2.52736e+00
40.000      1.82980e+00
41.000      1.27784e+00
42.000      8.90304e-01
43.000      6.69762e-01
44.000      6.12493e-01
45.000      7.15835e-01
46.000      9.80459e-01
47.000      1.40696e+00
48.000      1.98803e+00
49.000      2.69910e+00
50.000      3.49131e+00
51.000      4.29057e+00
52.000      5.00497e+00
53.000      5.54010e+00
54.000      5.81855e+00
55.000      5.79795e+00
56.000      5.48136e+00
57.000      4.91664e+00
58.000      4.18493e+00
59.000      3.38218e+00
60.000      2.59999e+00
61.000      1.91127e+00
62.000      1.36405e+00
63.000      9.83273e-01
64.000      7.78075e-01
65.000      7.50196e-01
66.000      8.99938e-01
67.000      1.22715e+00
68.000      1.72700e+00
69.000      2.38237e+00
70.000      3.15655e+00
71.000      3.99039e+00
72.000      4.80739e+00
73.000      5.52742e+00
74.000      6.08642e+00
75.000      6.45597e+00
76.000      6.65574e+00
77.000      6.75308e+00
78.000      6.84853e+00
79.000      7.05138e+00
80.000      7.45304e+00
81.000      8.10689e+00
82.000      9.02036e+00
83.000      1.01595e+01
84.000      1.14616e+01
85.000      1.28478e+01
86.000      1.42324e+01
87.000      1.55250e+01
88.000      1.66309e+01
89.000      1.74548e+01
90.000      1.79112e+01
91.000      1.79412e+01
92.000      1.75307e+01
93.000      1.67203e+01
94.000      1.56032e+01
95.000      1.43094e+01
96.000      1.29802e+01
97.000      1.17427e+01
98.000      1.06914e+01
99.000      9.88274e+00
100.000      9.34039e+00
101.000      9.06824e+00
102.000      9.06326e+00
103.000      9.32333e+00
104.000      9.84801e+00
105.000      1.06337e+01
106.000      1.16667e+01
107.000      1.29183e+01
108.000      1.43417e+01
109.000      1.58735e+01
110.000      1.74346e+01
111.000      1.89342e+01
112.000      2.02742e+01
113.000      2.13582e+01
114.000      2.21044e+01
115.000      2.24606e+01
116.000      2.24185e+01
117.000      2.20196e+01
118.000      2.13514e+01
119.000      2.05306e+01
120.000      1.96789e+01
121.000      1.88977e+01
122.000      1.82479e+01
123.000      1.77427e+01
124.000      1.73526e+01
125.000      1.70206e+01
126.000      1.66816e+01
127.000      1.62790e+01
128.000      1.57750e+01
129.000      1.51532e+01
130.000      1.44156e+01
131.000      1.35775e+01
132.000      1.26633e+01
133.000      1.17047e+01
134.000      1.07394e+01
135.000      9.80942e+00
136.000      8.95692e+00
137.000      8.21731e+00
138.000      7.61152e+00
139.000      7.14016e+00
140.000      6.78212e+00
141.000      6.49843e+00
142.000      6.24061e+00
143.000      5.96080e+00
144.000      5.62102e+00
145.000      5.19941e+00
146.000      4.69264e+00
147.000      4.11464e+00
148.000      3.49256e+00
149.000      2.86098e+00
150.000      2.25561e+00
151.000      1.70737e+00
152.000      1.23809e+00
153.000      8.58422e-01
154.000      5.68177e-01
155.000      3.58691e-01
156.000      2.16269e-01
157.000      1.25771e-01
158.000      7.35823e-02
159.000      4.96472e-02
160.000      4.86354e-02
161.000      7.04781e-02
162.000      1.20482e-01
163.000      2.09025e-01
164.000      3.50617e-01
165.000      5.62047e-01
166.000      8.59473e-01
167.000      1.25475e+00
168.000      1.75178e+00
169.000      2.34400e+00
170.000      3.01416e+00
171.000      3.73689e+00
172.000      4.48369e+00
173.000      5.22898e+00
174.000      5.95558e+00
175.000      6.65764e+00
176.000      7.34030e+00
177.000      8.01600e+00
178.000      8.69838e+00
179.000      9.39555e+00
180.000      1.01046e+01
181.000      1.08094e+01
182.000      1.14819e+01
183.000      1.20888e+01
184.000      1.25993e+01
185.000      1.29938e+01
186.000      1.32694e+01
187.000      1.34403e+01
188.000      1.35339e+01
189.000      1.35822e+01
190.000      1.36148e+01
191.000      1.36533e+01
192.000      1.37105e+01
193.000      1.37936e+01
194.000      1.39091e+01
195.000      1.40667e+01
196.000      1.42806e+01
197.000      1.45675e+01
198.000      1.49424e+01
199.000      1.54133e+01
200.000      1.59780e+01
201.000      1.66218e+01
202.000      1.73186e+01
203.000      1.80330e+01
204.000      1.87242e+01
205.000      1.93502e+01
206.000      1.98746e+01
207.000      2.02711e+01
208.000      2.05290e+01
209.000      2.06535e+01
210.000      2.06623e+01
211.000      2.05791e+01
212.000      2.04255e+01
213.000      2.02155e+01
214.000      1.99557e+01
215.000      1.96495e+01
216.000      1.93048e+01
217.000      1.89406e+01
218.000      1.85879e+01
219.000      1.82856e+01
220.000      1.80716e+01
221.000      1.79734e+01
222.000      1.80033e+01
223.000      1.81592e+01
224.000      1.84315e+01
225.000      1.88117e+01
226.000      1.92994e+01
227.000      1.99037e+01
228.000      2.06378e+01
229.000      2.15084e+01
230.000      2.25030e+01
231.000      2.35791e+01
232.000      2.46594e+01
233.000      2.56370e+01
234.000      2.63888e+01
235.000      2.67974e+01
236.000      2.67751e+01
237.000      2.62855e+01
238.000      2.53561e+01
239.000      2.40783e+01
240.000      2.25971e+01
241.000      2.10909e+01
242.000      1.97478e+01
243.000      1.87424e+01
244.000      1.82151e+01
245.000      1.82556e+01
246.000      1.88892e+01
247.000      2.00683e+01
248.000      2.16691e+01
249.000      2.34974e+01
250.000      2.53075e+01
251.000      2.68324e+01
252.000      2.78237e+01
253.000      2.80926e+01
254.000      2.75437e+01
255.000      2.61902e+01
256.000      2.41487e+01
257.000      2.16120e+01
258.000      1.88094e+01
259.000      1.59657e+01
260.000      1.32676e+01
261.000      1.08464e+01
262.000      8.77578e+00
263.000      7.08071e+00
264.000      5.75147e+00
265.000      4.75654e+00
266.000      4.05201e+00
267.000      3.58712e+00
268.000      3.30769e+00
269.000      3.15923e+00
270.000      3.09068e+00
271.000      3.05878e+00
272.000      3.03194e+00
273.000      2.99237e+00
274.000      2.93552e+00
275.000      2.86670e+00
276.000      2.79580e+00
277.000      2.73187e+00
278.000      2.67908e+00
279.000      2.63524e+00
280.000      2.59270e+00
281.000      2.54084e+00
282.000      2.46885e+00
283.000      2.36792e+00
284.000      2.23260e+00
285.000      2.06139e+00
286.000      1.85694e+00
287.000      1.62599e+00
288.000      1.37890e+00
289.000      1.12852e+00
290.000      8.88412e-01
291.000      6.70757e-01
292.000      4.84437e-01
293.000      3.33952e-01
294.000      2.19347e-01
295.000      1.37092e-01
296.000      8.15024e-02
297.000      4.62326e-02
298.000      2.54881e-02
299.000      1.48215e-02
300.000      1.15808e-02
301.000      1.52011e-02
302.000      2.75343e-02
303.000      5.33289e-02
304.000      1.00807e-01
305.000      1.82095e-01
306.000      3.13088e-01
307.000      5.12277e-01
308.000      7.98210e-01
309.000      1.18568e+00
310.000      1.68130e+00
311.000      2.27981e+00
312.000      2.96236e+00
313.000      3.69802e+00
314.000      4.44839e+00
315.000      5.17407e+00
316.000      5.84095e+00
317.000      6.42421e+00
318.000      6.90897e+00
319.000      7.28816e+00
320.000      7.55948e+00
321.000      7.72357e+00
322.000      7.78505e+00
323.000      7.75612e+00
324.000      7.66122e+00
325.000      7.54021e+00
326.000      7.44805e+00
327.000      7.45004e+00
328.000      7.61312e+00
329.000      7.99509e+00
330.000      8.63407e+00
331.000      9.53994e+00
332.000      1.06895e+01
333.000      1.20253e+01
334.000      1.34597e+01
335.000      1.48820e+01
336.000      1.61708e+01
337.000      1.72081e+01
338.000      1.78958e+01
339.000      1.81690e+01
340.000      1.80057e+01
341.000      1.74291e+01
342.000      1.65027e+01
343.000      1.53187e+01
344.000      1.39829e+01
345.000      1.25980e+01
346.000      1.12505e+01
347.000      1.00011e+01
348.000      8.88188e+00
349.000      7.89890e+00
350.000      7.03977e+00
351.000      6.28381e+00
352.000      5.61235e+00
353.000      5.01670e+00
354.000      4.50140e+00
355.000      4.08228e+00
356.000      3.77954e+00
357.000      3.60850e+00
358.000      3.57078e+00
359.000      3.64922e+00
360.000      3.80818e+00
361.000      3.99921e+00
362.000      4.17017e+00
363.000      4.27507e+00
364.000      4.28191e+00
365.000      4.17709e+00
366.000      3.96614e+00
367.000      3.67139e+00
368.000      3.32760e+00
369.000      2.97612e+00
370.000      2.65833e+00
371.000      2.40876e+00
372.000      2.24927e+00
373.000      2.18546e+00
374.000      2.20669e+00
375.000      2.28995e+00
376.000      2.40706e+00
377.000      2.53307e+00
378.000      2.65361e+00
379.000      2.76900e+00
380.000      2.89402e+00
381.000      3.05298e+00
382.000      3.27137e+00
383.000      3.56575e+00
384.000      3.93440e+00
385.000      4.35149e+00
386.000      4.76711e+00
387.000      5.11464e+00
388.000      5.32432e+00
389.000      5.33999e+00
390.000      5.13385e+00
391.000      4.71449e+00
392.000      4.12528e+00
393.000      3.43373e+00
394.000      2.71559e+00
395.000      2.03890e+00
396.000      1.45249e+00
397.000      9.81380e-01
398.000      6.28695e-01
399.000      3.81792e-01
400.000      2.19749e-01
401.000      1.19863e-01
402.000      6.19518e-02
403.000      3.03390e-02
404.000      1.40765e-02
405.000      6.18735e-03
406.000      2.57638e-03
407.000      1.01622e-03
408.000      3.79674e-04
409.000      1.34359e-04
410.000      4.50330e-05
411.000      1.42951e-05
412.000      4.29749e-06
413.000      1.22349e-06
414.000      3.29854e-07
415.000      8.42105e-08
416.000      2.03571e-08
417.000      4.65967e-09
418.000      1.00988e-09
419.000      2.07226e-10
420.000      4.02592e-11
421.000      7.40489e-12
422.000      1.28941e-12
423.000      2.12555e-13
424.000      3.31700e-14
425.000      4.90007e-15
426.000      6.85221e-16
427.000      9.07028e-17
428.000      1.13648e-17
429.000      1.34785e-18
430.000      1.51305e-19
431.000      1.60764e-20
432.000      1.61673e-21
433.000      1.53883e-22
434.000      1.38625e-23
435.000      1.18191e-24
436.000      9.53693e-26
437.000      7.28298e-27
438.000      5.26355e-28
439.000      3.60007e-29
440.000      2.33024e-30
441.000      1.42739e-31
442.000      8.27427e-33
443.000      4.53897e-34
444.000      2.35625e-35
445.000      1.15749e-36
446.000      5.38070e-38
447.000      2.36691e-39
448.000      9.85246e-41
449.000      3.88080e-42
450.000      1.44647e-43
451.000      5.10155e-45
452.000      1.70255e-46
453.000      5.37648e-48
454.000      1.60655e-49
455.000      4.54237e-51
456.000      1.21524e-52
457.000      3.07632e-54
458.000      7.36864e-56
459.000      1.67004e-57
460.000      3.58134e-59
461.000      7.26683e-61
462.000      1.39515e-62
463.000      2.53437e-64
464.000      4.35605e-66
465.000      7.08412e-68
466.000      1.09005e-69
467.000      1.58700e-71
468.000      2.18611e-73
469.000      2.84924e-75
470.000      3.51358e-77
471.000      4.09949e-79
472.000      4.52554e-81
473.000      4.72681e-83
474.000      4.67114e-85
475.000      4.36749e-87
476.000      3.86363e-89
477.000      3.23379e-91
478.000      2.56083e-93
479.000      1.91867e-95
480.000      1.36009e-97
481.000     9.12188e-100
482.000     5.78827e-102
483.000     3.47504e-104
484.000     1.97386e-106
485.000     1.06076e-108
486.000     5.39340e-111
487.000     2.59449e-113
488.000     1.18082e-115
489.000     5.08458e-118
490.000     2.07142e-120
491.000     7.98404e-123
492.000     2.91149e-125
493.000     1.00450e-127
494.000     3.27883e-130
495.000     1.01257e-132
496.000     2.95850e-135
497.000     8.17810e-138
498.000     2.13880e-140
499.000     5.29203e-143
500.000     1.23882e-145
