# Gaussian folded, width=10 cm^-1
# [cm^-1] arbitrary
0.000      3.00000e+00
1.000      2.91796e+00
2.000      2.68508e+00
3.000      2.33749e+00
4.000      1.92514e+00
5.000      1.50000e+00
6.000      1.10570e+00
7.000      7.71085e-01
8.000      5.08727e-01
9.000      3.17530e-01
10.000      1.87500e-01
11.000      1.04747e-01
12.000      5.53629e-02
13.000      2.76927e-02
14.000      1.31352e-02
15.000      5.98636e-03
16.000      2.84453e-03
17.000      1.98098e-03
18.000      2.91452e-03
19.000      6.31443e-03
20.000      1.42970e-02
21.000      3.11468e-02
22.000      6.44246e-02
23.000      1.26270e-01
24.000      2.34441e-01
25.000      4.12324e-01
26.000      6.86929e-01
27.000      1.08407e+00
28.000      1.62058e+00
29.000      2.29487e+00
30.000      3.07834e+00
31.000      3.91152e+00
32.000      4.70809e+00
33.000      5.36799e+00
34.000      5.79755e+00
35.000      5.93118e+00
36.000      5.74776e+00
37.000      5.27613e+00
38.000      4.58768e+00
39.000      3.77874e+00
40.000      2.94875e+00
41.000      2.18112e+00
42.000      1.53185e+00
43.000      1.02746e+00
44.000      6.70819e-01
45.000      4.51175e-01
46.000      3.54839e-01
47.000      3.73345e-01
48.000      5.07471e-01
49.000      7.66451e-01
50.000      1.16260e+00
51.000      1.70243e+00
52.000      2.37645e+00
53.000      3.15054e+00
54.000      3.96267e+00
55.000      4.72748e+00
56.000      5.34940e+00
57.000      5.74167e+00
58.000      5.84602e+00
59.000      5.64690e+00
60.000      5.17528e+00
61.000      4.50100e+00
62.000      3.71621e+00
63.000      2.91573e+00
64.000      2.18022e+00
65.000      1.56668e+00
66.000      1.10733e+00
67.000      8.15264e-01
68.000      6.93163e-01
69.000      7.41062e-01
70.000      9.60128e-01
71.000      1.35097e+00
72.000      1.90712e+00
73.000      2.60619e+00
74.000      3.40277e+00
75.000      4.22714e+00
76.000      4.99275e+00
77.000      5.61252e+00
78.000      6.02034e+00
79.000      6.19149e+00
80.000      6.15465e+00
81.000      5.99061e+00
82.000      5.81661e+00
83.000      5.76047e+00
84.000      5.93192e+00
85.000      6.39960e+00
86.000      7.17975e+00
87.000      8.23846e+00
88.000      9.50473e+00
89.000      1.08880e+01
90.000      1.22940e+01
91.000      1.36337e+01
92.000      1.48260e+01
93.000      1.57962e+01
94.000      1.64764e+01
95.000      1.68094e+01
96.000      1.67585e+01
97.000      1.63191e+01
98.000      1.55267e+01
99.000      1.44581e+01
100.000      1.32223e+01
101.000      1.19440e+01
102.000      1.07429e+01
103.000      9.71345e+00
104.000      8.91301e+00
105.000      8.35870e+00
106.000      8.03588e+00
107.000      7.91450e+00
108.000      7.96787e+00
109.000      8.18763e+00
110.000      8.58931e+00
111.000      9.20660e+00
112.000      1.00765e+01
113.000      1.12206e+01
114.000      1.26291e+01
115.000      1.42520e+01
116.000      1.60004e+01
117.000      1.77564e+01
118.000      1.93895e+01
119.000      2.07746e+01
120.000      2.18100e+01
121.000      2.24299e+01
122.000      2.26116e+01
123.000      2.23750e+01
124.000      2.17760e+01
125.000      2.08959e+01
126.000      1.98286e+01
127.000      1.86687e+01
128.000      1.75021e+01
129.000      1.63981e+01
130.000      1.54044e+01
131.000      1.45456e+01
132.000      1.38257e+01
133.000      1.32338e+01
134.000      1.27521e+01
135.000      1.23638e+01
136.000      1.20564e+01
137.000      1.18211e+01
138.000      1.16488e+01
139.000      1.15243e+01
140.000      1.14240e+01
141.000      1.13166e+01
142.000      1.11679e+01
143.000      1.09479e+01
144.000      1.06386e+01
145.000      1.02382e+01
146.000      9.76150e+00
147.000      9.23618e+00
148.000      8.69414e+00
149.000      8.16209e+00
150.000      7.65353e+00
151.000      7.16521e+00
152.000      6.67954e+00
153.000      6.17186e+00
154.000      5.62021e+00
155.000      5.01390e+00
156.000      4.35815e+00
157.000      3.67365e+00
158.000      2.99160e+00
159.000      2.34638e+00
160.000      1.76818e+00
161.000      1.27775e+00
162.000      8.84100e-01
163.000      5.85204e-01
164.000      3.70850e-01
165.000      2.26472e-01
166.000      1.36922e-01
167.000      8.94867e-02
168.000      7.59111e-02
169.000      9.34249e-02
170.000      1.44914e-01
171.000      2.38281e-01
172.000      3.84943e-01
173.000      5.97442e-01
174.000      8.86307e-01
175.000      1.25670e+00
176.000      1.70568e+00
177.000      2.22116e+00
178.000      2.78317e+00
179.000      3.36766e+00
180.000      3.95194e+00
181.000      4.52044e+00
182.000      5.06901e+00
183.000      5.60621e+00
184.000      6.15110e+00
185.000      6.72769e+00
186.000      7.35738e+00
187.000      8.05142e+00
188.000      8.80533e+00
189.000      9.59699e+00
190.000      1.03892e+01
191.000      1.11363e+01
192.000      1.17928e+01
193.000      1.23223e+01
194.000      1.27044e+01
195.000      1.29373e+01
196.000      1.30364e+01
197.000      1.30298e+01
198.000      1.29521e+01
199.000      1.28378e+01
200.000      1.27171e+01
201.000      1.26122e+01
202.000      1.25360e+01
203.000      1.24911e+01
204.000      1.24714e+01
205.000      1.24652e+01
206.000      1.24606e+01
207.000      1.24510e+01
208.000      1.24397e+01
209.000      1.24407e+01
210.000      1.24749e+01
211.000      1.25619e+01
212.000      1.27119e+01
213.000      1.29196e+01
214.000      1.31640e+01
215.000      1.34143e+01
216.000      1.36408e+01
217.000      1.38264e+01
218.000      1.39738e+01
219.000      1.41068e+01
220.000      1.42645e+01
221.000      1.44915e+01
222.000      1.48266e+01
223.000      1.52949e+01
224.000      1.59035e+01
225.000      1.66414e+01
226.000      1.74809e+01
227.000      1.83807e+01
228.000      1.92882e+01
229.000      2.01416e+01
230.000      2.08730e+01
231.000      2.14135e+01
232.000      2.16992e+01
233.000      2.16798e+01
234.000      2.13261e+01
235.000      2.06363e+01
236.000      1.96384e+01
237.000      1.83893e+01
238.000      1.69699e+01
239.000      1.54787e+01
240.000      1.40231e+01
241.000      1.27119e+01
242.000      1.16465e+01
243.000      1.09116e+01
244.000      1.05652e+01
245.000      1.06285e+01
246.000      1.10788e+01
247.000      1.18461e+01
248.000      1.28178e+01
249.000      1.38502e+01
250.000      1.47875e+01
251.000      1.54838e+01
252.000      1.58242e+01
253.000      1.57421e+01
254.000      1.52273e+01
255.000      1.43242e+01
256.000      1.31222e+01
257.000      1.17381e+01
258.000      1.02967e+01
259.000      8.91158e+00
260.000      7.67049e+00
261.000      6.62626e+00
262.000      5.79468e+00
263.000      5.15876e+00
264.000      4.67786e+00
265.000      4.29959e+00
266.000      3.97205e+00
267.000      3.65399e+00
268.000      3.32115e+00
269.000      2.96809e+00
270.000      2.60567e+00
271.000      2.25520e+00
272.000      1.94091e+00
273.000      1.68251e+00
274.000      1.48962e+00
275.000      1.35920e+00
276.000      1.27662e+00
277.000      1.21985e+00
278.000      1.16546e+00
279.000      1.09457e+00
280.000      9.96985e-01
281.000      8.72493e-01
282.000      7.29176e-01
283.000      5.79807e-01
284.000      4.37704e-01
285.000      3.13422e-01
286.000      2.13080e-01
287.000      1.38401e-01
288.000      8.80375e-02
289.000      5.95222e-02
290.000      5.12763e-02
291.000      6.42964e-02
292.000      1.03292e-01
293.000      1.77061e-01
294.000      2.97829e-01
295.000      4.79259e-01
296.000      7.33060e-01
297.000      1.06466e+00
298.000      1.46909e+00
299.000      1.92872e+00
300.000      2.41454e+00
301.000      2.89153e+00
302.000      3.32738e+00
303.000      3.70164e+00
304.000      4.01220e+00
305.000      4.27604e+00
306.000      4.52372e+00
307.000      4.78928e+00
308.000      5.09937e+00
309.000      5.46542e+00
310.000      5.88146e+00
311.000      6.32784e+00
312.000      6.77863e+00
313.000      7.20989e+00
314.000      7.60569e+00
315.000      7.96046e+00
316.000      8.27783e+00
317.000      8.56735e+00
318.000      8.84142e+00
319.000      9.11398e+00
320.000      9.40175e+00
321.000      9.72697e+00
322.000      1.01197e+01
323.000      1.06178e+01
324.000      1.12623e+01
325.000      1.20897e+01
326.000      1.31223e+01
327.000      1.43603e+01
328.000      1.57774e+01
329.000      1.73234e+01
330.000      1.89324e+01
331.000      2.05338e+01
332.000      2.20654e+01
333.000      2.34815e+01
334.000      2.47571e+01
335.000      2.58857e+01
336.000      2.68728e+01
337.000      2.77271e+01
338.000      2.84518e+01
339.000      2.90390e+01
340.000      2.94660e+01
341.000      2.96961e+01
342.000      2.96821e+01
343.000      2.93732e+01
344.000      2.87240e+01
345.000      2.77047e+01
346.000      2.63102e+01
347.000      2.45673e+01
348.000      2.25362e+01
349.000      2.03071e+01
350.000      1.79911e+01
351.000      1.57078e+01
352.000      1.35703e+01
353.000      1.16729e+01
354.000      1.00815e+01
355.000      8.82911e+00
356.000      7.91669e+00
357.000      7.31812e+00
358.000      6.98738e+00
359.000      6.86651e+00
360.000      6.89263e+00
361.000      7.00337e+00
362.000      7.14076e+00
363.000      7.25410e+00
364.000      7.30242e+00
365.000      7.25679e+00
366.000      7.10232e+00
367.000      6.83938e+00
368.000      6.48338e+00
369.000      6.06284e+00
370.000      5.61566e+00
371.000      5.18406e+00
372.000      4.80880e+00
373.000      4.52376e+00
374.000      4.35181e+00
375.000      4.30293e+00
376.000      4.37533e+00
377.000      4.55939e+00
378.000      4.84316e+00
379.000      5.21761e+00
380.000      5.67922e+00
381.000      6.22828e+00
382.000      6.86319e+00
383.000      7.57271e+00
384.000      8.32923e+00
385.000      9.08654e+00
386.000      9.78322e+00
387.000      1.03513e+01
388.000      1.07273e+01
389.000      1.08632e+01
390.000      1.07329e+01
391.000      1.03355e+01
392.000      9.69381e+00
393.000      8.84947e+00
394.000      7.85728e+00
395.000      6.77871e+00
396.000      5.67581e+00
397.000      4.60578e+00
398.000      3.61640e+00
399.000      2.74280e+00
400.000      2.00571e+00
401.000      1.41157e+00
402.000      9.54383e-01
403.000      6.18843e-01
404.000      3.84219e-01
405.000      2.28074e-01
406.000      1.29268e-01
407.000      6.98724e-02
408.000      3.59798e-02
409.000      1.76338e-02
410.000      8.21900e-03
411.000      3.64059e-03
412.000      1.53160e-03
413.000      6.11661e-04
414.000      2.31781e-04
415.000      8.33065e-05
416.000      2.83905e-05
417.000      9.17143e-06
418.000      2.80780e-06
419.000      8.14465e-07
420.000      2.23808e-07
421.000      5.82518e-08
422.000      1.43587e-08
423.000      3.35152e-09
424.000      7.40708e-10
425.000      1.54985e-10
426.000      3.07000e-11
427.000      5.75653e-12
428.000      1.02172e-12
429.000      1.71644e-13
430.000      2.72916e-14
431.000      4.10691e-15
432.000      5.84887e-16
433.000      7.88285e-17
434.000      1.00540e-17
435.000      1.21345e-18
436.000      1.38587e-19
437.000      1.49774e-20
438.000      1.53162e-21
439.000      1.48204e-22
440.000      1.35692e-23
441.000      1.17552e-24
442.000      9.63565e-26
443.000      7.47310e-27
444.000      5.48385e-28
445.000      3.80742e-29
446.000      2.50111e-30
447.000      1.55449e-31
448.000      9.14099e-33
449.000      5.08564e-34
450.000      2.67696e-35
451.000      1.33316e-36
452.000      6.28145e-38
453.000      2.80012e-39
454.000      1.18095e-40
455.000      4.71213e-42
456.000      1.77884e-43
457.000      6.35315e-45
458.000      2.14670e-46
459.000      6.86251e-48
460.000      2.07550e-49
461.000      5.93868e-51
462.000      1.60762e-52
463.000      4.11720e-54
464.000      9.97577e-56
465.000      2.28673e-57
466.000      4.95914e-59
467.000      1.01747e-60
468.000      1.97496e-62
469.000      3.62676e-64
470.000      6.30088e-66
471.000      1.03563e-67
472.000      1.61038e-69
473.000      2.36905e-71
474.000      3.29715e-73
475.000      4.34135e-75
476.000      5.40793e-77
477.000      6.37318e-79
478.000      7.10561e-81
479.000      7.49491e-83
480.000      7.47911e-85
481.000      7.06079e-87
482.000      6.30631e-89
483.000      5.32864e-91
484.000      4.25967e-93
485.000      3.22147e-95
486.000      2.30489e-97
487.000      1.56015e-99
488.000     9.99079e-102
489.000     6.05274e-104
490.000     3.46914e-106
491.000     1.88110e-108
492.000     9.64978e-111
493.000     4.68319e-113
494.000     2.15023e-115
495.000     9.33998e-118
496.000     3.83817e-120
497.000     1.49218e-122
498.000     5.48828e-125
499.000     1.90972e-127
500.000     6.28665e-130
