# Gaussian folded, width=10 cm^-1
# [cm^-1] arbitrary
0.000      3.00000e+00
1.000      2.91796e+00
2.000      2.68508e+00
3.000      2.33749e+00
4.000      1.92514e+00
5.000      1.50000e+00
6.000      1.10570e+00
7.000      7.71085e-01
8.000      5.08727e-01
9.000      3.17530e-01
10.000      1.87500e-01
11.000      1.04747e-01
12.000      5.53631e-02
13.000      2.76931e-02
14.000      1.31366e-02
15.000      5.99025e-03
16.000      2.85451e-03
17.000      2.00488e-03
18.000      2.96789e-03
19.000      6.42501e-03
20.000      1.45085e-02
21.000      3.15168e-02
22.000      6.50077e-02
23.000      1.27074e-01
24.000      2.35344e-01
25.000      4.12958e-01
26.000      6.86552e-01
27.000      1.08149e+00
28.000      1.61422e+00
29.000      2.28302e+00
30.000      3.05968e+00
31.000      3.88574e+00
32.000      4.67643e+00
33.000      5.33345e+00
34.000      5.76455e+00
35.000      5.90465e+00
36.000      5.73196e+00
37.000      5.27351e+00
38.000      4.59829e+00
39.000      3.80029e+00
40.000      2.97740e+00
41.000      2.21256e+00
42.000      1.56240e+00
43.000      1.05482e+00
44.000      6.94313e-01
45.000      4.71662e-01
46.000      3.74251e-01
47.000      3.94078e-01
48.000      5.31676e-01
49.000      7.95277e-01
50.000      1.19549e+00
51.000      1.73670e+00
52.000      2.40727e+00
53.000      3.17176e+00
54.000      3.96823e+00
55.000      4.71325e+00
56.000      5.31479e+00
57.000      5.69036e+00
58.000      5.78546e+00
59.000      5.58651e+00
60.000      5.12408e+00
61.000      4.46542e+00
62.000      3.69883e+00
63.000      2.91528e+00
64.000      2.19268e+00
65.000      1.58682e+00
66.000      1.13021e+00
67.000      8.37070e-01
68.000      7.11402e-01
69.000      7.54191e-01
70.000      9.66976e-01
71.000      1.35030e+00
72.000      1.89755e+00
73.000      2.58666e+00
74.000      3.37320e+00
75.000      4.18917e+00
76.000      4.95012e+00
77.000      5.57078e+00
78.000      5.98595e+00
79.000      6.17063e+00
80.000      6.15227e+00
81.000      6.01004e+00
82.000      5.85997e+00
83.000      5.82945e+00
84.000      6.02824e+00
85.000      6.52437e+00
86.000      7.33161e+00
87.000      8.41086e+00
88.000      9.68356e+00
89.000      1.10513e+01
90.000      1.24144e+01
91.000      1.36844e+01
92.000      1.47884e+01
93.000      1.56670e+01
94.000      1.62714e+01
95.000      1.65628e+01
96.000      1.65174e+01
97.000      1.61334e+01
98.000      1.54388e+01
99.000      1.44927e+01
100.000      1.33813e+01
101.000      1.22058e+01
102.000      1.10673e+01
103.000      1.00521e+01
104.000      9.22121e+00
105.000      8.60697e+00
106.000      8.21709e+00
107.000      8.04439e+00
108.000      8.07891e+00
109.000      8.31785e+00
110.000      8.76985e+00
111.000      9.45172e+00
112.000      1.03786e+01
113.000      1.15508e+01
114.000      1.29425e+01
115.000      1.44951e+01
116.000      1.61195e+01
117.000      1.77055e+01
118.000      1.91374e+01
119.000      2.03107e+01
120.000      2.11475e+01
121.000      2.16065e+01
122.000      2.16860e+01
123.000      2.14204e+01
124.000      2.08720e+01
125.000      2.01195e+01
126.000      1.92470e+01
127.000      1.83338e+01
128.000      1.74471e+01
129.000      1.66358e+01
130.000      1.59276e+01
131.000      1.53279e+01
132.000      1.48223e+01
133.000      1.43820e+01
134.000      1.39725e+01
135.000      1.35627e+01
136.000      1.31336e+01
137.000      1.26816e+01
138.000      1.22170e+01
139.000      1.17578e+01
140.000      1.13196e+01
141.000      1.09071e+01
142.000      1.05097e+01
143.000      1.01036e+01
144.000      9.66045e+00
145.000      9.15867e+00
146.000      8.59420e+00
147.000      7.98505e+00
148.000      7.36806e+00
149.000      6.78859e+00
150.000      6.28662e+00
151.000      5.88442e+00
152.000      5.57984e+00
153.000      5.34728e+00
154.000      5.14540e+00
155.000      4.92854e+00
156.000      4.65816e+00
157.000      4.31116e+00
158.000      3.88354e+00
159.000      3.38930e+00
160.000      2.85576e+00
161.000      2.31682e+00
162.000      1.80602e+00
163.000      1.35095e+00
164.000      9.69877e-01
165.000      6.71111e-01
166.000      4.54679e-01
167.000      3.15598e-01
168.000      2.47601e-01
169.000      2.46270e-01
170.000      3.10808e-01
171.000      4.44073e-01
172.000      6.50965e-01
173.000      9.35702e-01
174.000      1.29885e+00
175.000      1.73511e+00
176.000      2.23269e+00
177.000      2.77469e+00
178.000      3.34205e+00
179.000      3.91731e+00
180.000      4.48767e+00
181.000      5.04656e+00
182.000      5.59308e+00
183.000      6.12974e+00
184.000      6.65940e+00
185.000      7.18248e+00
186.000      7.69543e+00
187.000      8.19064e+00
188.000      8.65784e+00
189.000      9.08629e+00
190.000      9.46710e+00
191.000      9.79521e+00
192.000      1.00702e+01
193.000      1.02964e+01
194.000      1.04816e+01
195.000      1.06358e+01
196.000      1.07704e+01
197.000      1.08976e+01
198.000      1.10311e+01
199.000      1.11851e+01
200.000      1.13738e+01
201.000      1.16081e+01
202.000      1.18923e+01
203.000      1.22210e+01
204.000      1.25779e+01
205.000      1.29379e+01
206.000      1.32706e+01
207.000      1.35465e+01
208.000      1.37424e+01
209.000      1.38460e+01
210.000      1.38582e+01
211.000      1.37934e+01
212.000      1.36774e+01
213.000      1.35437e+01
214.000      1.34294e+01
215.000      1.33709e+01
216.000      1.34005e+01
217.000      1.35432e+01
218.000      1.38150e+01
219.000      1.42208e+01
220.000      1.47528e+01
221.000      1.53902e+01
222.000      1.61001e+01
223.000      1.68411e+01
224.000      1.75684e+01
225.000      1.82403e+01
226.000      1.88250e+01
227.000      1.93042e+01
228.000      1.96729e+01
229.000      1.99362e+01
230.000      2.01021e+01
231.000      2.01736e+01
232.000      2.01432e+01
233.000      1.99915e+01
234.000      1.96899e+01
235.000      1.92094e+01
236.000      1.85301e+01
237.000      1.76527e+01
238.000      1.66047e+01
239.000      1.54437e+01
240.000      1.42528e+01
241.000      1.31309e+01
242.000      1.21787e+01
243.000      1.14834e+01
244.000      1.11053e+01
245.000      1.10689e+01
246.000      1.13594e+01
247.000      1.19250e+01
248.000      1.26831e+01
249.000      1.35300e+01
250.000      1.43521e+01
251.000      1.50367e+01
252.000      1.54832e+01
253.000      1.56128e+01
254.000      1.53769e+01
255.000      1.47628e+01
256.000      1.37968e+01
257.000      1.25418e+01
258.000      1.10911e+01
259.000      9.55658e+00
260.000      8.05353e+00
261.000      6.68527e+00
262.000      5.52945e+00
263.000      4.62941e+00
264.000      3.99183e+00
265.000      3.59097e+00
266.000      3.37767e+00
267.000      3.29105e+00
268.000      3.26983e+00
269.000      3.26122e+00
270.000      3.22601e+00
271.000      3.13999e+00
272.000      2.99247e+00
273.000      2.78354e+00
274.000      2.52110e+00
275.000      2.21834e+00
276.000      1.89185e+00
277.000      1.55979e+00
278.000      1.24003e+00
279.000      9.48136e-01
280.000      6.95608e-01
281.000      4.88781e-01
282.000      3.28773e-01
283.000      2.12465e-01
284.000      1.34242e-01
285.000      8.80375e-02
286.000      6.92199e-02
287.000      7.59983e-02
288.000      1.10106e-01
289.000      1.76603e-01
290.000      2.82658e-01
291.000      4.35319e-01
292.000      6.38514e-01
293.000      8.90011e-01
294.000      1.17938e+00
295.000      1.48816e+00
296.000      1.79281e+00
297.000      2.07024e+00
298.000      2.30423e+00
299.000      2.49065e+00
300.000      2.63914e+00
301.000      2.77068e+00
302.000      2.91173e+00
303.000      3.08734e+00
304.000      3.31578e+00
305.000      3.60629e+00
306.000      3.95993e+00
307.000      4.37200e+00
308.000      4.83428e+00
309.000      5.33603e+00
310.000      5.86387e+00
311.000      6.40158e+00
312.000      6.93085e+00
313.000      7.43335e+00
314.000      7.89367e+00
315.000      8.30249e+00
316.000      8.65918e+00
317.000      8.97362e+00
318.000      9.26706e+00
319.000      9.57150e+00
320.000      9.92716e+00
321.000      1.03775e+01
322.000      1.09622e+01
323.000      1.17096e+01
324.000      1.26304e+01
325.000      1.37142e+01
326.000      1.49308e+01
327.000      1.62340e+01
328.000      1.75695e+01
329.000      1.88822e+01
330.000      2.01237e+01
331.000      2.12576e+01
332.000      2.22624e+01
333.000      2.31323e+01
334.000      2.38749e+01
335.000      2.45065e+01
336.000      2.50467e+01
337.000      2.55121e+01
338.000      2.59115e+01
339.000      2.62438e+01
340.000      2.64977e+01
341.000      2.66535e+01
342.000      2.66853e+01
343.000      2.65631e+01
344.000      2.62540e+01
345.000      2.57250e+01
346.000      2.49462e+01
347.000      2.38973e+01
348.000      2.25751e+01
349.000      2.10013e+01
350.000      1.92271e+01
351.000      1.73316e+01
352.000      1.54134e+01
353.000      1.35765e+01
354.000      1.19135e+01
355.000      1.04916e+01
356.000      9.34550e+00
357.000      8.47762e+00
358.000      7.86502e+00
359.000      7.46904e+00
360.000      7.24374e+00
361.000      7.14078e+00
362.000      7.11111e+00
363.000      7.10514e+00
364.000      7.07445e+00
365.000      6.97614e+00
366.000      6.77972e+00
367.000      6.47398e+00
368.000      6.07087e+00
369.000      5.60402e+00
370.000      5.12151e+00
371.000      4.67483e+00
372.000      4.30759e+00
373.000      4.04760e+00
374.000      3.90481e+00
375.000      3.87509e+00
376.000      3.94782e+00
377.000      4.11401e+00
378.000      4.37172e+00
379.000      4.72692e+00
380.000      5.18957e+00
381.000      5.76658e+00
382.000      6.45371e+00
383.000      7.22927e+00
384.000      8.05152e+00
385.000      8.86073e+00
386.000      9.58590e+00
387.000      1.01548e+01
388.000      1.05052e+01
389.000      1.05950e+01
390.000      1.04095e+01
391.000      9.96269e+00
392.000      9.29503e+00
393.000      8.46514e+00
394.000      7.53963e+00
395.000      6.58231e+00
396.000      5.64562e+00
397.000      4.76602e+00
398.000      3.96372e+00
399.000      3.24611e+00
400.000      2.61272e+00
401.000      2.06007e+00
402.000      1.58465e+00
403.000      1.18386e+00
404.000      8.55217e-01
405.000      5.95013e-01
406.000      3.97339e-01
407.000      2.53947e-01
408.000      1.54979e-01
409.000      9.01471e-02
410.000      4.99056e-02
411.000      2.62645e-02
412.000      1.31286e-02
413.000      6.22848e-03
414.000      2.80295e-03
415.000      1.19596e-03
416.000      4.83646e-04
417.000      1.85316e-04
418.000      6.72618e-05
419.000      2.31209e-05
420.000      7.52568e-06
421.000      2.31917e-06
422.000      6.76574e-07
423.000      1.86831e-07
424.000      4.88314e-08
425.000      1.20791e-08
426.000      2.82768e-09
427.000      6.26419e-10
428.000      1.31316e-10
429.000      2.60482e-11
430.000      4.88910e-12
431.000      8.68281e-13
432.000      1.45903e-13
433.000      2.31968e-14
434.000      3.48939e-15
435.000      4.96617e-16
436.000      6.68713e-17
437.000      8.51919e-18
438.000      1.02682e-18
439.000      1.17092e-19
440.000      1.26325e-20
441.000      1.28939e-21
442.000      1.24510e-22
443.000      1.13751e-23
444.000      9.83169e-25
445.000      8.03944e-26
446.000      6.21937e-27
447.000      4.55187e-28
448.000      3.15177e-29
449.000      2.06462e-30
450.000      1.27952e-31
451.000      7.50192e-33
452.000      4.16120e-34
453.000      2.18365e-35
454.000      1.08410e-36
455.000      5.09180e-38
456.000      2.26253e-39
457.000      9.51118e-41
458.000      3.78262e-42
459.000      1.42321e-43
460.000      5.06601e-45
461.000      1.70600e-46
462.000      5.43514e-48
463.000      1.63817e-49
464.000      4.67119e-51
465.000      1.26012e-52
466.000      3.21600e-54
467.000      7.76491e-56
468.000      1.77368e-57
469.000      3.83293e-59
470.000      7.83619e-61
471.000      1.51564e-62
472.000      2.77336e-64
473.000      4.80102e-66
474.000      7.86281e-68
475.000      1.21826e-69
476.000      1.78575e-71
477.000      2.47638e-73
478.000      3.24887e-75
479.000      4.03242e-77
480.000      4.73496e-79
481.000      5.25998e-81
482.000      5.52803e-83
483.000      5.49634e-85
484.000      5.17005e-87
485.000      4.60080e-89
486.000      3.87337e-91
487.000      3.08506e-93
488.000      2.32463e-95
489.000      1.65716e-97
490.000      1.11761e-99
491.000     7.13073e-102
492.000     4.30423e-104
493.000     2.45796e-106
494.000     1.32792e-108
495.000     6.78714e-111
496.000     3.28185e-113
497.000     1.50131e-115
498.000     6.49735e-118
499.000     2.66024e-120
500.000     1.03044e-122
