# Gaussian folded, width=10 cm^-1
# [cm^-1] arbitrary
0.000      3.00000e+00
1.000      2.91796e+00
2.000      2.68508e+00
3.000      2.33749e+00
4.000      1.92514e+00
5.000      1.50000e+00
6.000      1.10570e+00
7.000      7.71086e-01
8.000      5.08727e-01
9.000      3.17532e-01
10.000      1.87509e-01
11.000      1.04775e-01
12.000      5.54516e-02
13.000      2.79524e-02
14.000      1.38539e-02
15.000      7.86571e-03
16.000      7.48702e-03
17.000      1.28118e-02
18.000      2.67703e-02
19.000      5.59009e-02
20.000      1.11515e-01
21.000      2.10808e-01
22.000      3.77123e-01
23.000      6.38288e-01
24.000      1.02205e+00
25.000      1.54826e+00
26.000      2.21889e+00
27.000      3.00846e+00
28.000      3.85896e+00
29.000      4.68289e+00
30.000      5.37621e+00
31.000      5.83926e+00
32.000      6.00015e+00
33.000      5.83309e+00
34.000      5.36536e+00
35.000      4.67033e+00
36.000      3.84949e+00
37.000      3.00966e+00
38.000      2.24321e+00
39.000      1.61672e+00
40.000      1.16944e+00
41.000      9.19459e-01
42.000      8.72756e-01
43.000      1.03008e+00
44.000      1.38844e+00
45.000      1.93636e+00
46.000      2.64534e+00
47.000      3.46166e+00
48.000      4.30396e+00
49.000      5.06997e+00
50.000      5.65298e+00
51.000      5.96406e+00
52.000      5.95324e+00
53.000      5.62217e+00
54.000      5.02361e+00
55.000      4.24788e+00
56.000      3.40118e+00
57.000      2.58332e+00
58.000      1.87155e+00
59.000      1.31433e+00
60.000      9.34493e-01
61.000      7.38399e-01
62.000      7.26005e-01
63.000      8.97564e-01
64.000      1.25433e+00
65.000      1.79318e+00
66.000      2.49759e+00
67.000      3.32932e+00
68.000      4.22567e+00
69.000      5.10615e+00
70.000      5.88880e+00
71.000      6.51233e+00
72.000      6.95651e+00
73.000      7.25271e+00
74.000      7.47914e+00
75.000      7.74153e+00
76.000      8.14541e+00
77.000      8.76993e+00
78.000      9.65171e+00
79.000      1.07821e+01
80.000      1.21156e+01
81.000      1.35819e+01
82.000      1.50961e+01
83.000      1.65627e+01
84.000      1.78771e+01
85.000      1.89284e+01
86.000      1.96094e+01
87.000      1.98337e+01
88.000      1.95554e+01
89.000      1.87834e+01
90.000      1.75853e+01
91.000      1.60788e+01
92.000      1.44142e+01
93.000      1.27552e+01
94.000      1.12627e+01
95.000      1.00826e+01
96.000      9.33489e+00
97.000      9.10126e+00
98.000      9.41119e+00
99.000      1.02315e+01
100.000      1.14665e+01
101.000      1.29742e+01
102.000      1.45966e+01
103.000      1.61938e+01
104.000      1.76698e+01
105.000      1.89763e+01
106.000      2.00964e+01
107.000      2.10168e+01
108.000      2.17067e+01
109.000      2.21196e+01
110.000      2.22197e+01
111.000      2.20219e+01
112.000      2.16235e+01
113.000      2.12049e+01
114.000      2.09901e+01
115.000      2.11763e+01
116.000      2.18558e+01
117.000      2.29626e+01
118.000      2.42657e+01
119.000      2.54171e+01
120.000      2.60406e+01
121.000      2.58326e+01
122.000      2.46422e+01
123.000      2.25064e+01
124.000      1.96319e+01
125.000      1.63359e+01
126.000      1.29670e+01
127.000      9.83280e+00
128.000      7.15254e+00
129.000      5.03998e+00
130.000      3.51325e+00
131.000      2.51977e+00
132.000      1.96493e+00
133.000      1.73645e+00
134.000      1.72139e+00
135.000      1.81677e+00
136.000      1.93622e+00
137.000      2.01476e+00
138.000      2.01198e+00
139.000      1.91286e+00
140.000      1.72531e+00
141.000      1.47398e+00
142.000      1.19198e+00
143.000      9.12148e-01
144.000      6.60427e-01
145.000      4.52402e-01
146.000      2.93197e-01
147.000      1.79791e-01
148.000      1.04364e-01
149.000      5.74824e-02
150.000      3.04017e-02
151.000      1.63295e-02
152.000      1.08964e-02
153.000      1.22125e-02
154.000      2.08639e-02
155.000      4.00529e-02
156.000      7.59000e-02
157.000      1.37753e-01
158.000      2.38230e-01
159.000      3.92701e-01
160.000      6.18009e-01
161.000      9.30476e-01
162.000      1.34341e+00
163.000      1.86450e+00
164.000      2.49332e+00
165.000      3.21912e+00
166.000      4.01898e+00
167.000      4.85707e+00
168.000      5.68621e+00
169.000      6.45381e+00
170.000      7.11315e+00
171.000      7.63904e+00
172.000      8.04360e+00
173.000      8.38522e+00
174.000      8.76430e+00
175.000      9.30241e+00
176.000      1.01084e+01
177.000      1.12410e+01
178.000      1.26806e+01
179.000      1.43219e+01
180.000      1.59909e+01
181.000      1.74845e+01
182.000      1.86191e+01
183.000      1.92763e+01
184.000      1.94312e+01
185.000      1.91567e+01
186.000      1.86025e+01
187.000      1.79537e+01
188.000      1.73810e+01
189.000      1.69950e+01
190.000      1.68198e+01
191.000      1.67948e+01
192.000      1.68068e+01
193.000      1.67444e+01
194.000      1.65551e+01
195.000      1.62862e+01
196.000      1.60898e+01
197.000      1.61899e+01
198.000      1.68173e+01
199.000      1.81338e+01
200.000      2.01716e+01
201.000      2.28076e+01
202.000      2.57839e+01
203.000      2.87698e+01
204.000      3.14436e+01
205.000      3.35690e+01
206.000      3.50381e+01
207.000      3.58688e+01
208.000      3.61595e+01
209.000      3.60237e+01
210.000      3.55333e+01
211.000      3.46946e+01
212.000      3.34658e+01
213.000      3.18037e+01
214.000      2.97146e+01
215.000      2.72828e+01
216.000      2.46618e+01
217.000      2.20336e+01
218.000      1.95554e+01
219.000      1.73202e+01
220.000      1.53480e+01
221.000      1.36101e+01
222.000      1.20730e+01
223.000      1.07407e+01
224.000      9.67918e+00
225.000      9.01218e+00
226.000      8.89468e+00
227.000      9.47274e+00
228.000      1.08432e+01
229.000      1.30221e+01
230.000      1.59266e+01
231.000      1.93716e+01
232.000      2.30815e+01
233.000      2.67169e+01
234.000      2.99186e+01
235.000      3.23636e+01
236.000      3.38268e+01
237.000      3.42332e+01
238.000      3.36836e+01
239.000      3.24421e+01
240.000      3.08839e+01
241.000      2.94145e+01
242.000      2.83845e+01
243.000      2.80249e+01
244.000      2.84203e+01
245.000      2.95222e+01
246.000      3.11897e+01
247.000      3.32348e+01
248.000      3.54551e+01
249.000      3.76448e+01
250.000      3.95903e+01
251.000      4.10664e+01
252.000      4.18472e+01
253.000      4.17368e+01
254.000      4.06146e+01
255.000      3.84746e+01
256.000      3.54441e+01
257.000      3.17668e+01
258.000      2.77555e+01
259.000      2.37265e+01
260.000      1.99382e+01
261.000      1.65522e+01
262.000      1.36266e+01
263.000      1.11382e+01
264.000      9.02051e+00
265.000      7.20176e+00
266.000      5.62958e+00
267.000      4.27830e+00
268.000      3.14250e+00
269.000      2.22443e+00
270.000      1.52333e+00
271.000      1.03093e+00
272.000      7.33427e-01
273.000      6.17173e-01
274.000      6.73915e-01
275.000      9.02384e-01
276.000      1.30444e+00
277.000      1.87626e+00
278.000      2.59703e+00
279.000      3.41960e+00
280.000      4.26738e+00
281.000      5.04107e+00
282.000      5.63529e+00
283.000      5.96117e+00
284.000      5.96818e+00
285.000      5.65761e+00
286.000      5.08286e+00
287.000      4.33632e+00
288.000      3.52735e+00
289.000      2.75860e+00
290.000      2.10738e+00
291.000      1.61608e+00
292.000      1.29194e+00
293.000      1.11393e+00
294.000      1.04316e+00
295.000      1.03395e+00
296.000      1.04332e+00
297.000      1.03795e+00
298.000      9.97882e-01
299.000      9.17123e-01
300.000      8.01431e-01
301.000      6.64129e-01
302.000      5.21245e-01
303.000      3.87238e-01
304.000      2.72232e-01
305.000      1.81079e-01
306.000      1.13956e-01
307.000      6.78481e-02
308.000      3.82173e-02
309.000      2.03658e-02
310.000      1.02674e-02
311.000      4.89712e-03
312.000      2.20972e-03
313.000      9.43305e-04
314.000      3.80964e-04
315.000      1.45557e-04
316.000      5.26140e-05
317.000      1.79923e-05
318.000      5.82088e-06
319.000      1.78159e-06
320.000      5.15877e-07
321.000      1.41319e-07
322.000      3.66248e-08
323.000      8.97977e-09
324.000      2.08292e-09
325.000      4.57087e-10
326.000      9.48948e-11
327.000      1.86382e-11
328.000      3.46323e-12
329.000      6.08804e-13
330.000      1.01249e-13
331.000      1.59303e-14
332.000      2.37122e-15
333.000      3.33917e-16
334.000      4.44859e-17
335.000      5.60692e-18
336.000      6.68565e-19
337.000      7.54189e-20
338.000      8.04887e-21
339.000      8.12656e-22
340.000      7.76241e-23
341.000      7.01462e-24
342.000      5.99693e-25
343.000      4.85033e-26
344.000      3.71135e-27
345.000      2.68664e-28
346.000      1.83994e-29
347.000      1.19211e-30
348.000      7.30715e-32
349.000      4.23737e-33
350.000      2.32467e-34
351.000      1.20655e-35
352.000      5.92442e-37
353.000      2.75210e-38
354.000      1.20949e-39
355.000      5.02868e-41
356.000      1.97800e-42
357.000      7.36062e-44
358.000      2.59132e-45
359.000      8.63068e-47
360.000      2.71949e-48
361.000      8.10674e-50
362.000      2.28625e-51
363.000      6.09983e-53
364.000      1.53968e-54
365.000      3.67671e-56
366.000      8.30629e-58
367.000      1.77530e-59
368.000      3.58967e-61
369.000      6.86680e-63
370.000      1.24272e-64
371.000      2.12769e-66
372.000      3.44636e-68
373.000      5.28118e-70
374.000      7.65630e-72
375.000      1.05009e-73
376.000      1.36254e-75
377.000      1.67259e-77
378.000      1.94244e-79
379.000      2.13414e-81
380.000      2.21829e-83
381.000      2.18137e-85
382.000      2.02935e-87
383.000      1.78609e-89
384.000      1.48720e-91
385.000      1.17152e-93
386.000      8.73071e-96
387.000      6.15554e-98
388.000     4.10583e-100
389.000     2.59091e-102
390.000     1.54676e-104
391.000     8.73595e-107
392.000     4.66783e-109
393.000     2.35959e-111
394.000     1.12844e-113
395.000     5.10547e-116
396.000     2.18530e-118
397.000     8.84919e-121
398.000     3.39011e-123
399.000     1.22869e-125
400.000     4.21297e-128
401.000     1.36663e-130
402.000     4.19404e-133
403.000     1.21767e-135
404.000     3.34462e-138
405.000     8.69122e-141
406.000     2.13664e-143
407.000     4.96936e-146
408.000     1.09342e-148
409.000     2.27610e-151
410.000     4.48243e-154
411.000     8.35127e-157
412.000     1.47201e-159
413.000     2.45462e-162
414.000     3.87236e-165
415.000     5.77944e-168
416.000     8.16044e-171
417.000     1.09008e-173
418.000     1.37759e-176
419.000     1.64703e-179
420.000     1.86294e-182
421.000     1.99349e-185
422.000     2.01812e-188
423.000     1.93285e-191
424.000     1.75132e-194
425.000     1.50124e-197
426.000     1.21746e-200
427.000     9.34062e-204
428.000     6.77976e-207
429.000     4.65554e-210
430.000     3.02443e-213
431.000     1.85881e-216
432.000     1.08080e-219
433.000     5.94526e-223
434.000     3.09396e-226
435.000     1.52327e-229
436.000     7.09506e-233
437.000     3.12646e-236
438.000     1.30337e-239
439.000     5.14043e-243
440.000     1.91800e-246
441.000     6.77044e-250
442.000     2.26101e-253
443.000     7.14339e-257
444.000     2.13513e-260
445.000     6.03757e-264
446.000     1.61517e-267
447.000     4.08781e-271
448.000     9.78771e-275
449.000     2.21712e-278
450.000     4.75133e-282
451.000     9.63293e-286
452.000     1.84765e-289
453.000     3.35272e-293
454.000     5.75565e-297
455.000     9.34776e-301
456.000     1.43628e-304
457.000     2.08780e-308
458.000     2.87114e-312
459.000     3.73541e-316
460.000     4.59777e-320
461.000     4.94066e-324
462.000      0.00000e+00
463.000      0.00000e+00
464.000      0.00000e+00
465.000      0.00000e+00
466.000      0.00000e+00
467.000      0.00000e+00
468.000      0.00000e+00
469.000      0.00000e+00
470.000      0.00000e+00
471.000      0.00000e+00
472.000      0.00000e+00
473.000      0.00000e+00
474.000      0.00000e+00
475.000      0.00000e+00
476.000      0.00000e+00
477.000      0.00000e+00
478.000      0.00000e+00
479.000      0.00000e+00
480.000      0.00000e+00
481.000      0.00000e+00
482.000      0.00000e+00
483.000      0.00000e+00
484.000      0.00000e+00
485.000      0.00000e+00
486.000      0.00000e+00
487.000      0.00000e+00
488.000      0.00000e+00
489.000      0.00000e+00
490.000      0.00000e+00
491.000      0.00000e+00
492.000      0.00000e+00
493.000      0.00000e+00
494.000      0.00000e+00
495.000      0.00000e+00
496.000      0.00000e+00
497.000      0.00000e+00
498.000      0.00000e+00
499.000      0.00000e+00
500.000      0.00000e+00
