# Gaussian folded, width=10 cm^-1
# [cm^-1] arbitrary
0.000      3.00000e+00
1.000      2.91796e+00
2.000      2.68508e+00
3.000      2.33749e+00
4.000      1.92514e+00
5.000      1.50000e+00
6.000      1.10570e+00
7.000      7.71085e-01
8.000      5.08727e-01
9.000      3.17529e-01
10.000      1.87500e-01
11.000      1.04746e-01
12.000      5.53594e-02
13.000      2.76810e-02
14.000      1.30983e-02
15.000      5.87631e-03
16.000      2.53420e-03
17.000      1.15371e-03
18.000      8.30186e-04
19.000      1.35242e-03
20.000      3.13974e-03
21.000      7.46138e-03
22.000      1.69793e-02
23.000      3.66494e-02
24.000      7.49410e-02
25.000      1.45149e-01
26.000      2.66286e-01
27.000      4.62739e-01
28.000      7.61702e-01
29.000      1.18769e+00
30.000      1.75429e+00
31.000      2.45464e+00
32.000      3.25360e+00
33.000      4.08545e+00
34.000      4.85979e+00
35.000      5.47649e+00
36.000      5.84648e+00
37.000      5.91285e+00
38.000      5.66511e+00
39.000      5.14196e+00
40.000      4.42136e+00
41.000      3.60155e+00
42.000      2.77931e+00
43.000      2.03204e+00
44.000      1.40809e+00
45.000      9.26032e-01
46.000      5.81044e-01
47.000      3.54676e-01
48.000      2.24812e-01
49.000      1.73537e-01
50.000      1.92075e-01
51.000      2.82757e-01
52.000      4.58208e-01
53.000      7.37807e-01
54.000      1.14143e+00
55.000      1.68090e+00
56.000      2.35054e+00
57.000      3.11932e+00
58.000      3.92791e+00
59.000      4.69309e+00
60.000      5.32051e+00
61.000      5.72324e+00
62.000      5.84144e+00
63.000      5.65693e+00
64.000      5.19784e+00
65.000      4.53171e+00
66.000      3.74961e+00
67.000      2.94642e+00
68.000      2.20364e+00
69.000      1.57909e+00
70.000      1.10508e+00
71.000      7.93683e-01
72.000      6.45499e-01
73.000      6.58065e-01
74.000      8.30743e-01
75.000      1.16442e+00
76.000      1.65627e+00
77.000      2.29142e+00
78.000      3.03505e+00
79.000      3.82843e+00
80.000      4.59226e+00
81.000      5.23822e+00
82.000      5.68698e+00
83.000      5.88806e+00
84.000      5.83557e+00
85.000      5.57467e+00
86.000      5.19600e+00
87.000      4.81907e+00
88.000      4.56898e+00
89.000      4.55229e+00
90.000      4.83804e+00
91.000      5.44812e+00
92.000      6.35834e+00
93.000      7.50873e+00
94.000      8.81909e+00
95.000      1.02043e+01
96.000      1.15852e+01
97.000      1.28921e+01
98.000      1.40628e+01
99.000      1.50385e+01
100.000      1.57614e+01
101.000      1.61780e+01
102.000      1.62461e+01
103.000      1.59448e+01
104.000      1.52821e+01
105.000      1.42991e+01
106.000      1.30682e+01
107.000      1.16869e+01
108.000      1.02680e+01
109.000      8.92603e+00
110.000      7.76306e+00
111.000      6.85473e+00
112.000      6.24105e+00
113.000      5.92468e+00
114.000      5.87854e+00
115.000      6.06147e+00
116.000      6.43722e+00
117.000      6.99007e+00
118.000      7.73107e+00
119.000      8.69179e+00
120.000      9.90740e+00
121.000      1.13947e+01
122.000      1.31331e+01
123.000      1.50552e+01
124.000      1.70511e+01
125.000      1.89834e+01
126.000      2.07108e+01
127.000      2.21090e+01
128.000      2.30873e+01
129.000      2.35947e+01
130.000      2.36175e+01
131.000      2.31731e+01
132.000      2.23024e+01
133.000      2.10654e+01
134.000      1.95397e+01
135.000      1.78206e+01
136.000      1.60186e+01
137.000      1.42525e+01
138.000      1.26377e+01
139.000      1.12727e+01
140.000      1.02255e+01
141.000      9.52611e+00
142.000      9.16541e+00
143.000      9.10195e+00
144.000      9.27338e+00
145.000      9.60983e+00
146.000      1.00450e+01
147.000      1.05227e+01
148.000      1.09978e+01
149.000      1.14335e+01
150.000      1.17965e+01
151.000      1.20548e+01
152.000      1.21780e+01
153.000      1.21408e+01
154.000      1.19289e+01
155.000      1.15433e+01
156.000      1.10019e+01
157.000      1.03373e+01
158.000      9.59036e+00
159.000      8.80294e+00
160.000      8.01037e+00
161.000      7.23701e+00
162.000      6.49487e+00
163.000      5.78549e+00
164.000      5.10396e+00
165.000      4.44390e+00
166.000      3.80194e+00
167.000      3.18063e+00
168.000      2.58903e+00
169.000      2.04098e+00
170.000      1.55159e+00
171.000      1.13333e+00
172.000      7.92962e-01
173.000      5.30202e-01
174.000      3.38354e-01
175.000      2.06408e-01
176.000      1.21774e-01
177.000      7.28637e-02
178.000      5.10477e-02
179.000      5.18769e-02
180.000      7.56665e-02
181.000      1.27552e-01
182.000      2.16980e-01
183.000      3.56455e-01
184.000      5.59341e-01
185.000      8.36754e-01
186.000      1.19403e+00
187.000      1.62771e+00
188.000      2.12428e+00
189.000      2.66156e+00
190.000      3.21271e+00
191.000      3.75187e+00
192.000      4.25936e+00
193.000      4.72435e+00
194.000      5.14394e+00
195.000      5.51914e+00
196.000      5.84994e+00
197.000      6.13218e+00
198.000      6.35810e+00
199.000      6.52070e+00
200.000      6.62025e+00
201.000      6.66993e+00
202.000      6.69780e+00
203.000      6.74374e+00
204.000      6.85197e+00
205.000      7.06108e+00
206.000      7.39471e+00
207.000      7.85537e+00
208.000      8.42298e+00
209.000      9.05853e+00
210.000      9.71170e+00
211.000      1.03308e+01
212.000      1.08721e+01
213.000      1.13073e+01
214.000      1.16251e+01
215.000      1.18289e+01
216.000      1.19293e+01
217.000      1.19365e+01
218.000      1.18535e+01
219.000      1.16756e+01
220.000      1.13949e+01
221.000      1.10089e+01
222.000      1.05294e+01
223.000      9.98785e+00
224.000      9.43363e+00
225.000      8.92675e+00
226.000      8.52556e+00
227.000      8.27412e+00
228.000      8.19261e+00
229.000      8.27321e+00
230.000      8.48229e+00
231.000      8.76761e+00
232.000      9.06858e+00
233.000      9.32689e+00
234.000      9.49527e+00
235.000      9.54310e+00
236.000      9.45827e+00
237.000      9.24590e+00
238.000      8.92495e+00
239.000      8.52387e+00
240.000      8.07631e+00
241.000      7.61727e+00
242.000      7.17977e+00
243.000      6.79186e+00
244.000      6.47396e+00
245.000      6.23672e+00
246.000      6.07987e+00
247.000      5.99235e+00
248.000      5.95395e+00
249.000      5.93818e+00
250.000      5.91632e+00
251.000      5.86191e+00
252.000      5.75519e+00
253.000      5.58619e+00
254.000      5.35568e+00
255.000      5.07343e+00
256.000      4.75423e+00
257.000      4.41331e+00
258.000      4.06295e+00
259.000      3.71152e+00
260.000      3.36485e+00
261.000      3.02851e+00
262.000      2.70919e+00
263.000      2.41401e+00
264.000      2.14824e+00
265.000      1.91271e+00
266.000      1.70284e+00
267.000      1.50991e+00
268.000      1.32435e+00
269.000      1.13935e+00
270.000      9.53309e-01
271.000      7.70025e-01
272.000      5.96894e-01
273.000      4.42071e-01
274.000      3.11842e-01
275.000      2.09101e-01
276.000      1.33192e-01
277.000      8.08081e-02
278.000      4.73879e-02
279.000      2.85008e-02
280.000      2.09332e-02
281.000      2.34264e-02
282.000      3.71433e-02
283.000      6.59366e-02
284.000      1.16382e-01
285.000      1.97425e-01
286.000      3.19431e-01
287.000      4.92540e-01
288.000      7.24451e-01
289.000      1.01814e+00
290.000      1.37022e+00
291.000      1.77076e+00
292.000      2.20487e+00
293.000      2.65598e+00
294.000      3.10985e+00
295.000      3.55819e+00
296.000      4.00069e+00
297.000      4.44497e+00
298.000      4.90430e+00
299.000      5.39371e+00
300.000      5.92526e+00
301.000      6.50323e+00
302.000      7.12055e+00
303.000      7.75743e+00
304.000      8.38323e+00
305.000      8.96187e+00
306.000      9.45974e+00
307.000      9.85374e+00
308.000      1.01370e+01
309.000      1.03200e+01
310.000      1.04270e+01
311.000      1.04890e+01
312.000      1.05358e+01
313.000      1.05911e+01
314.000      1.06704e+01
315.000      1.07829e+01
316.000      1.09361e+01
317.000      1.11409e+01
318.000      1.14145e+01
319.000      1.17810e+01
320.000      1.22691e+01
321.000      1.29086e+01
322.000      1.37276e+01
323.000      1.47504e+01
324.000      1.59970e+01
325.000      1.74819e+01
326.000      1.92108e+01
327.000      2.11729e+01
328.000      2.33325e+01
329.000      2.56212e+01
330.000      2.79372e+01
331.000      3.01527e+01
332.000      3.21308e+01
333.000      3.37484e+01
334.000      3.49181e+01
335.000      3.56041e+01
336.000      3.58271e+01
337.000      3.56572e+01
338.000      3.51978e+01
339.000      3.45645e+01
340.000      3.38656e+01
341.000      3.31876e+01
342.000      3.25877e+01
343.000      3.20928e+01
344.000      3.17023e+01
345.000      3.13934e+01
346.000      3.11263e+01
347.000      3.08498e+01
348.000      3.05065e+01
349.000      3.00390e+01
350.000      2.93951e+01
351.000      2.85338e+01
352.000      2.74290e+01
353.000      2.60733e+01
354.000      2.44794e+01
355.000      2.26822e+01
356.000      2.07375e+01
357.000      1.87195e+01
358.000      1.67152e+01
359.000      1.48164e+01
360.000      1.31094e+01
361.000      1.16652e+01
362.000      1.05301e+01
363.000      9.71910e+00
364.000      9.21262e+00
365.000      8.95802e+00
366.000      8.87566e+00
367.000      8.86956e+00
368.000      8.84113e+00
369.000      8.70389e+00
370.000      8.39667e+00
371.000      7.89288e+00
372.000      7.20446e+00
373.000      6.37972e+00
374.000      5.49567e+00
375.000      4.64656e+00
376.000      3.93079e+00
377.000      3.43855e+00
378.000      3.24199e+00
379.000      3.38859e+00
380.000      3.89753e+00
381.000      4.75838e+00
382.000      5.93202e+00
383.000      7.35385e+00
384.000      8.93987e+00
385.000      1.05954e+01
386.000      1.22250e+01
387.000      1.37417e+01
388.000      1.50725e+01
389.000      1.61591e+01
390.000      1.69551e+01
391.000      1.74229e+01
392.000      1.75315e+01
393.000      1.72595e+01
394.000      1.66015e+01
395.000      1.55749e+01
396.000      1.42250e+01
397.000      1.26251e+01
398.000      1.08702e+01
399.000      9.06728e+00
400.000      7.32182e+00
401.000      5.72594e+00
402.000      4.34868e+00
403.000      3.23057e+00
404.000      2.38273e+00
405.000      1.78975e+00
406.000      1.41545e+00
407.000      1.21027e+00
408.000      1.11907e+00
409.000      1.08869e+00
410.000      1.07433e+00
411.000      1.04400e+00
412.000      9.80530e-01
413.000      8.80859e-01
414.000      7.52792e-01
415.000      6.10335e-01
416.000      4.68797e-01
417.000      3.40898e-01
418.000      2.34603e-01
419.000      1.52771e-01
420.000      9.41247e-02
421.000      5.48662e-02
422.000      3.02575e-02
423.000      1.57865e-02
424.000      7.79216e-03
425.000      3.63872e-03
426.000      1.60753e-03
427.000      6.71872e-04
428.000      2.65663e-04
429.000      9.93790e-05
430.000      3.51703e-05
431.000      1.17754e-05
432.000      3.72984e-06
433.000      1.11770e-06
434.000      3.16865e-07
435.000      8.49852e-08
436.000      2.15640e-08
437.000      5.17647e-09
438.000      1.17559e-09
439.000      2.52577e-10
440.000      5.13395e-11
441.000      9.87247e-12
442.000      1.79605e-12
443.000      3.09120e-13
444.000      5.03332e-14
445.000      7.75353e-15
446.000      1.12996e-15
447.000      1.55791e-16
448.000      2.03207e-17
449.000      2.50758e-18
450.000      2.92743e-19
451.000      3.23324e-20
452.000      3.37836e-21
453.000      3.33958e-22
454.000      3.12316e-23
455.000      2.76322e-24
456.000      2.31288e-25
457.000      1.83151e-26
458.000      1.37209e-27
459.000      9.72466e-29
460.000      6.52053e-30
461.000      4.13628e-31
462.000      2.48230e-32
463.000      1.40934e-33
464.000      7.56997e-35
465.000      3.84673e-36
466.000      1.84929e-37
467.000      8.41081e-39
468.000      3.61899e-40
469.000      1.47318e-41
470.000      5.67335e-43
471.000      2.06701e-44
472.000      7.12462e-46
473.000      2.32327e-47
474.000      7.16728e-49
475.000      2.09183e-50
476.000      5.77587e-52
477.000      1.50878e-53
478.000      3.72865e-55
479.000      8.71755e-57
480.000      1.92821e-58
481.000      4.03491e-60
482.000      7.98785e-62
483.000      1.49604e-63
484.000      2.65078e-65
485.000      4.44348e-67
486.000      7.04676e-69
487.000      1.05724e-70
488.000      1.50064e-72
489.000      2.01509e-74
490.000      2.55995e-76
491.000      3.07670e-78
492.000      3.49831e-80
493.000      3.76311e-82
494.000      3.82961e-84
495.000      3.68705e-86
496.000      3.35832e-88
497.000      2.89389e-90
498.000      2.35917e-92
499.000      1.81951e-94
500.000      1.32760e-96
