# Gaussian folded, width=10 cm^-1
# [cm^-1] arbitrary
0.000      3.00000e+00
1.000      2.91796e+00
2.000      2.68508e+00
3.000      2.33749e+00
4.000      1.92514e+00
5.000      1.50000e+00
6.000      1.10570e+00
7.000      7.71085e-01
8.000      5.08727e-01
9.000      3.17529e-01
10.000      1.87500e-01
11.000      1.04746e-01
12.000      5.53594e-02
13.000      2.76807e-02
14.000      1.30976e-02
15.000      5.87409e-03
16.000      2.52784e-03
17.000      1.13651e-03
18.000      7.86519e-04
19.000      1.24836e-03
20.000      2.90739e-03
21.000      6.97601e-03
22.000      1.60330e-02
23.000      3.49330e-02
24.000      7.20569e-02
25.000      1.40689e-01
26.000      2.60004e-01
27.000      4.54819e-01
28.000      7.53078e-01
29.000      1.18028e+00
30.000      1.75097e+00
31.000      2.45881e+00
32.000      3.26831e+00
33.000      4.11225e+00
34.000      4.89772e+00
35.000      5.52166e+00
36.000      5.89263e+00
37.000      5.95271e+00
38.000      5.69230e+00
39.000      5.15264e+00
40.000      4.41513e+00
41.000      3.58123e+00
42.000      2.74983e+00
43.000      1.99892e+00
44.000      1.37606e+00
45.000      8.98133e-01
46.000      5.58383e-01
47.000      3.36643e-01
48.000      2.09526e-01
49.000      1.58358e-01
50.000      1.74108e-01
51.000      2.59416e-01
52.000      4.27932e-01
53.000      7.00919e-01
54.000      1.10094e+00
55.000      1.64284e+00
56.000      2.32345e+00
57.000      3.11256e+00
58.000      3.94900e+00
59.000      4.74493e+00
60.000      5.39945e+00
61.000      5.81900e+00
62.000      5.93926e+00
63.000      5.74126e+00
64.000      5.25637e+00
65.000      4.55829e+00
66.000      3.74501e+00
67.000      2.91700e+00
68.000      2.15862e+00
69.000      1.52756e+00
70.000      1.05384e+00
71.000      7.46371e-01
72.000      6.03018e-01
73.000      6.19957e-01
74.000      7.96889e-01
75.000      1.13650e+00
76.000      1.63843e+00
77.000      2.28983e+00
78.000      3.05619e+00
79.000      3.87650e+00
80.000      4.66645e+00
81.000      5.33094e+00
82.000      5.78385e+00
83.000      5.96996e+00
84.000      5.88235e+00
85.000      5.56924e+00
86.000      5.12761e+00
87.000      4.68507e+00
88.000      4.37475e+00
89.000      4.30992e+00
90.000      4.56431e+00
91.000      5.16227e+00
92.000      6.07993e+00
93.000      7.25587e+00
94.000      8.60732e+00
95.000      1.00466e+01
96.000      1.14931e+01
97.000      1.28772e+01
98.000      1.41381e+01
99.000      1.52170e+01
100.000      1.60527e+01
101.000      1.65824e+01
102.000      1.67495e+01
103.000      1.65157e+01
104.000      1.58735e+01
105.000      1.48553e+01
106.000      1.35346e+01
107.000      1.20191e+01
108.000      1.04374e+01
109.000      8.91990e+00
110.000      7.58050e+00
111.000      6.50188e+00
112.000      5.72892e+00
113.000      5.27180e+00
114.000      5.11734e+00
115.000      5.24423e+00
116.000      5.63681e+00
117.000      6.29212e+00
118.000      7.21830e+00
119.000      8.42521e+00
120.000      9.91124e+00
121.000      1.16513e+01
122.000      1.35897e+01
123.000      1.56407e+01
124.000      1.76950e+01
125.000      1.96314e+01
126.000      2.13298e+01
127.000      2.26840e+01
128.000      2.36109e+01
129.000      2.40570e+01
130.000      2.40009e+01
131.000      2.34529e+01
132.000      2.24531e+01
133.000      2.10688e+01
134.000      1.93909e+01
135.000      1.75311e+01
136.000      1.56156e+01
137.000      1.37780e+01
138.000      1.21475e+01
139.000      1.08360e+01
140.000      9.92403e+00
141.000      9.44950e+00
142.000      9.40156e+00
143.000      9.72166e+00
144.000      1.03126e+01
145.000      1.10540e+01
146.000      1.18207e+01
147.000      1.25004e+01
148.000      1.30071e+01
149.000      1.32876e+01
150.000      1.33217e+01
151.000      1.31176e+01
152.000      1.27038e+01
153.000      1.21212e+01
154.000      1.14159e+01
155.000      1.06336e+01
156.000      9.81662e+00
157.000      9.00139e+00
158.000      8.21701e+00
159.000      7.48343e+00
160.000      6.80987e+00
161.000      6.19386e+00
162.000      5.62247e+00
163.000      5.07606e+00
164.000      4.53424e+00
165.000      3.98253e+00
166.000      3.41726e+00
167.000      2.84726e+00
168.000      2.29143e+00
169.000      1.77342e+00
170.000      1.31528e+00
171.000      9.32242e-01
172.000      6.30120e-01
173.000      4.05495e-01
174.000      2.48126e-01
175.000      1.44239e-01
176.000      7.96254e-02
177.000      4.18029e-02
178.000      2.10926e-02
179.000      1.08116e-02
180.000      6.98108e-03
181.000      7.93023e-03
182.000      1.40714e-02
183.000      2.79791e-02
184.000      5.47663e-02
185.000      1.02615e-01
186.000      1.83184e-01
187.000      3.11523e-01
188.000      5.05112e-01
189.000      7.81791e-01
190.000      1.15667e+00
191.000      1.63853e+00
192.000      2.22654e+00
193.000      2.90836e+00
194.000      3.66015e+00
195.000      4.44888e+00
196.000      5.23628e+00
197.000      5.98377e+00
198.000      6.65745e+00
199.000      7.23257e+00
200.000      7.69721e+00
201.000      8.05483e+00
202.000      8.32534e+00
203.000      8.54410e+00
204.000      8.75794e+00
205.000      9.01833e+00
206.000      9.37190e+00
207.000      9.85002e+00
208.000      1.04596e+01
209.000      1.11775e+01
210.000      1.19509e+01
211.000      1.27046e+01
212.000      1.33537e+01
213.000      1.38207e+01
214.000      1.40511e+01
215.000      1.40248e+01
216.000      1.37590e+01
217.000      1.33040e+01
218.000      1.27306e+01
219.000      1.21153e+01
220.000      1.15256e+01
221.000      1.10086e+01
222.000      1.05863e+01
223.000      1.02547e+01
224.000      9.98966e+00
225.000      9.75570e+00
226.000      9.51643e+00
227.000      9.24476e+00
228.000      8.92980e+00
229.000      8.57886e+00
230.000      8.21418e+00
231.000      7.86561e+00
232.000      7.56188e+00
233.000      7.32340e+00
234.000      7.15841e+00
235.000      7.06294e+00
236.000      7.02357e+00
237.000      7.02127e+00
238.000      7.03516e+00
239.000      7.04553e+00
240.000      7.03637e+00
241.000      6.99766e+00
242.000      6.92725e+00
243.000      6.83182e+00
244.000      6.72578e+00
245.000      6.62757e+00
246.000      6.55375e+00
247.000      6.51226e+00
248.000      6.49722e+00
249.000      6.48757e+00
250.000      6.45079e+00
251.000      6.35122e+00
252.000      6.16060e+00
253.000      5.86750e+00
254.000      5.48189e+00
255.000      5.03321e+00
256.000      4.56198e+00
257.000      4.10799e+00
258.000      3.69907e+00
259.000      3.34453e+00
260.000      3.03531e+00
261.000      2.75040e+00
262.000      2.46655e+00
263.000      2.16751e+00
264.000      1.84932e+00
265.000      1.52056e+00
266.000      1.19817e+00
267.000      9.01255e-01
268.000      6.45401e-01
269.000      4.39220e-01
270.000      2.83720e-01
271.000      1.73824e-01
272.000      1.00953e-01
273.000      5.55627e-02
274.000      2.89786e-02
275.000      1.43366e-02
276.000      6.77662e-03
277.000      3.19575e-03
278.000      1.84710e-03
279.000      1.98896e-03
280.000      3.69663e-03
281.000      7.88176e-03
282.000      1.65179e-02
283.000      3.30258e-02
284.000      6.27070e-02
285.000      1.13034e-01
286.000      1.93530e-01
287.000      3.14968e-01
288.000      4.87760e-01
289.000      7.19673e-01
290.000      1.01340e+00
291.000      1.36478e+00
292.000      1.76253e+00
293.000      2.18992e+00
294.000      2.62806e+00
295.000      3.05992e+00
296.000      3.47361e+00
297.000      3.86382e+00
298.000      4.23099e+00
299.000      4.57895e+00
300.000      4.91213e+00
301.000      5.23405e+00
302.000      5.54760e+00
303.000      5.85750e+00
304.000      6.17355e+00
305.000      6.51340e+00
306.000      6.90295e+00
307.000      7.37333e+00
308.000      7.95426e+00
309.000      8.66504e+00
310.000      9.50557e+00
311.000      1.04503e+01
312.000      1.14474e+01
313.000      1.24251e+01
314.000      1.33036e+01
315.000      1.40112e+01
316.000      1.45002e+01
317.000      1.47598e+01
318.000      1.48212e+01
319.000      1.47547e+01
320.000      1.46594e+01
321.000      1.46471e+01
322.000      1.48252e+01
323.000      1.52822e+01
324.000      1.60776e+01
325.000      1.72369e+01
326.000      1.87505e+01
327.000      2.05752e+01
328.000      2.26360e+01
329.000      2.48308e+01
330.000      2.70364e+01
331.000      2.91197e+01
332.000      3.09524e+01
333.000      3.24284e+01
334.000      3.34809e+01
335.000      3.40937e+01
336.000      3.43031e+01
337.000      3.41908e+01
338.000      3.38659e+01
339.000      3.34434e+01
340.000      3.30222e+01
341.000      3.26691e+01
342.000      3.24119e+01
343.000      3.22418e+01
344.000      3.21230e+01
345.000      3.20067e+01
346.000      3.18424e+01
347.000      3.15869e+01
348.000      3.12064e+01
349.000      3.06743e+01
350.000      2.99679e+01
351.000      2.90666e+01
352.000      2.79540e+01
353.000      2.66243e+01
354.000      2.50895e+01
355.000      2.33853e+01
356.000      2.15717e+01
357.000      1.97266e+01
358.000      1.79352e+01
359.000      1.62766e+01
360.000      1.48112e+01
361.000      1.35731e+01
362.000      1.25679e+01
363.000      1.17757e+01
364.000      1.11595e+01
365.000      1.06740e+01
366.000      1.02739e+01
367.000      9.91868e+00
368.000      9.57376e+00
369.000      9.20880e+00
370.000      8.79610e+00
371.000      8.31111e+00
372.000      7.73640e+00
373.000      7.06828e+00
374.000      6.32358e+00
375.000      5.54339e+00
376.000      4.79165e+00
377.000      4.14810e+00
378.000      3.69709e+00
379.000      3.51499e+00
380.000      3.65880e+00
381.000      4.15820e+00
382.000      5.01173e+00
383.000      6.18718e+00
384.000      7.62521e+00
385.000      9.24536e+00
386.000      1.09529e+01
387.000      1.26457e+01
388.000      1.42202e+01
389.000      1.55764e+01
390.000      1.66230e+01
391.000      1.72826e+01
392.000      1.74981e+01
393.000      1.72393e+01
394.000      1.65091e+01
395.000      1.53473e+01
396.000      1.38297e+01
397.000      1.20617e+01
398.000      1.01674e+01
399.000      8.27471e+00
400.000      6.49997e+00
401.000      4.93500e+00
402.000      3.63899e+00
403.000      2.63608e+00
404.000      1.91843e+00
405.000      1.45293e+00
406.000      1.18979e+00
407.000      1.07135e+00
408.000      1.03991e+00
409.000      1.04435e+00
410.000      1.04496e+00
411.000      1.01629e+00
412.000      9.47732e-01
413.000      8.41574e-01
414.000      7.09206e-01
415.000      5.66265e-01
416.000      4.28052e-01
417.000      3.06225e-01
418.000      2.07288e-01
419.000      1.32758e-01
420.000      8.04419e-02
421.000      4.61136e-02
422.000      2.50091e-02
423.000      1.28318e-02
424.000      6.22863e-03
425.000      2.86034e-03
426.000      1.24268e-03
427.000      5.10764e-04
428.000      1.98609e-04
429.000      7.30625e-05
430.000      2.54277e-05
431.000      8.37218e-06
432.000      2.60788e-06
433.000      7.68516e-07
434.000      2.14258e-07
435.000      5.65116e-08
436.000      1.41012e-08
437.000      3.32884e-09
438.000      7.43442e-10
439.000      1.57079e-10
440.000      3.13985e-11
441.000      5.93766e-12
442.000      1.06228e-12
443.000      1.79797e-13
444.000      2.87900e-14
445.000      4.36133e-15
446.000      6.25048e-16
447.000      8.47473e-17
448.000      1.08707e-17
449.000      1.31918e-18
450.000      1.51450e-19
451.000      1.64495e-20
452.000      1.69026e-21
453.000      1.64312e-22
454.000      1.51114e-23
455.000      1.31480e-24
456.000      1.08226e-25
457.000      8.42789e-27
458.000      6.20905e-28
459.000      4.32761e-29
460.000      2.85358e-30
461.000      1.78012e-31
462.000      1.05057e-32
463.000      5.86569e-34
464.000      3.09835e-35
465.000      1.54832e-36
466.000      7.31993e-38
467.000      3.27395e-39
468.000      1.38533e-40
469.000      5.54566e-42
470.000      2.10025e-43
471.000      7.52498e-45
472.000      2.55069e-46
473.000      8.17952e-48
474.000      2.48151e-49
475.000      7.12231e-51
476.000      1.93394e-52
477.000      4.96803e-54
478.000      1.20738e-55
479.000      2.77599e-57
480.000      6.03825e-59
481.000      1.24257e-60
482.000      2.41908e-62
483.000      4.45550e-64
484.000      7.76355e-66
485.000      1.27980e-67
486.000      1.99591e-69
487.000      2.94481e-71
488.000      4.11047e-73
489.000      5.42804e-75
490.000      6.78129e-77
491.000      8.01492e-79
492.000      8.96197e-81
493.000      9.48038e-83
494.000      9.48780e-85
495.000      8.98303e-87
496.000      8.04633e-89
497.000      6.81852e-91
498.000      5.46639e-93
499.000      4.14599e-95
500.000      2.97491e-97
