# Gaussian folded, width=10 cm^-1
# [cm^-1] arbitrary
0.000      3.00000e+00
1.000      2.91796e+00
2.000      2.68508e+00
3.000      2.33749e+00
4.000      1.92514e+00
5.000      1.50000e+00
6.000      1.10570e+00
7.000      7.71085e-01
8.000      5.08727e-01
9.000      3.17530e-01
10.000      1.87502e-01
11.000      1.04752e-01
12.000      5.53810e-02
13.000      2.77485e-02
14.000      1.32983e-02
15.000      6.43608e-03
16.000      4.01609e-03
17.000      4.86317e-03
18.000      9.60831e-03
19.000      2.09845e-02
20.000      4.46214e-02
21.000      9.02321e-02
22.000      1.72859e-01
23.000      3.13524e-01
24.000      5.38346e-01
25.000      8.75101e-01
26.000      1.34668e+00
27.000      1.96192e+00
28.000      2.70590e+00
29.000      3.53312e+00
30.000      4.36739e+00
31.000      5.11099e+00
32.000      5.66252e+00
33.000      5.93934e+00
34.000      5.89784e+00
35.000      5.54473e+00
36.000      4.93536e+00
37.000      4.15971e+00
38.000      3.32110e+00
39.000      2.51481e+00
40.000      1.81286e+00
41.000      1.25846e+00
42.000      8.69320e-01
43.000      6.46920e-01
44.000      5.86899e-01
45.000      6.86770e-01
46.000      9.48318e-01
47.000      1.37399e+00
48.000      1.95857e+00
49.000      2.67899e+00
50.000      3.48657e+00
51.000      4.30548e+00
52.000      5.04036e+00
53.000      5.59240e+00
54.000      5.88021e+00
55.000      5.85920e+00
56.000      5.53272e+00
57.000      4.95130e+00
58.000      4.20013e+00
59.000      3.37929e+00
60.000      2.58330e+00
61.000      1.88627e+00
62.000      1.33576e+00
63.000      9.55344e-01
64.000      7.52635e-01
65.000      7.28474e-01
66.000      8.83192e-01
67.000      1.21748e+00
68.000      1.72759e+00
69.000      2.39690e+00
70.000      3.18776e+00
71.000      4.03817e+00
72.000      4.86702e+00
73.000      5.58883e+00
74.000      6.13499e+00
75.000      6.47500e+00
76.000      6.63005e+00
77.000      6.67270e+00
78.000      6.71140e+00
79.000      6.86418e+00
80.000      7.22994e+00
81.000      7.86662e+00
82.000      8.78234e+00
83.000      9.94018e+00
84.000      1.12719e+01
85.000      1.26929e+01
86.000      1.41135e+01
87.000      1.54422e+01
88.000      1.65867e+01
89.000      1.74556e+01
90.000      1.79664e+01
91.000      1.80601e+01
92.000      1.77175e+01
93.000      1.69705e+01
94.000      1.59021e+01
95.000      1.46329e+01
96.000      1.32974e+01
97.000      1.20193e+01
98.000      1.08923e+01
99.000      9.97493e+00
100.000      9.29574e+00
101.000      8.86740e+00
102.000      8.69991e+00
103.000      8.80789e+00
104.000      9.20934e+00
105.000      9.91813e+00
106.000      1.09345e+01
107.000      1.22379e+01
108.000      1.37832e+01
109.000      1.55010e+01
110.000      1.72985e+01
111.000      1.90623e+01
112.000      2.06640e+01
113.000      2.19716e+01
114.000      2.28684e+01
115.000      2.32756e+01
116.000      2.31744e+01
117.000      2.26172e+01
118.000      2.17230e+01
119.000      2.06547e+01
120.000      1.95855e+01
121.000      1.86610e+01
122.000      1.79714e+01
123.000      1.75385e+01
124.000      1.73209e+01
125.000      1.72335e+01
126.000      1.71732e+01
127.000      1.70443e+01
128.000      1.67759e+01
129.000      1.63298e+01
130.000      1.57000e+01
131.000      1.49054e+01
132.000      1.39802e+01
133.000      1.29647e+01
134.000      1.18983e+01
135.000      1.08162e+01
136.000      9.74906e+00
137.000      8.72456e+00
138.000      7.76879e+00
139.000      6.90608e+00
140.000      6.15611e+00
141.000      5.52888e+00
142.000      5.01979e+00
143.000      4.60760e+00
144.000      4.25722e+00
145.000      3.92751e+00
146.000      3.58160e+00
147.000      3.19643e+00
148.000      2.76784e+00
149.000      2.30978e+00
150.000      1.84842e+00
151.000      1.41352e+00
152.000      1.03045e+00
153.000      7.14935e-01
154.000      4.71609e-01
155.000      2.95717e-01
156.000      1.76587e-01
157.000      1.01419e-01
158.000      5.83750e-02
159.000      3.85979e-02
160.000      3.72659e-02
161.000      5.40307e-02
162.000      9.31212e-02
163.000      1.63201e-01
164.000      2.76839e-01
165.000      4.49335e-01
166.000      6.96705e-01
167.000      1.03290e+00
168.000      1.46672e+00
169.000      1.99910e+00
170.000      2.62173e+00
171.000      3.31742e+00
172.000      4.06237e+00
173.000      4.82975e+00
174.000      5.59384e+00
175.000      6.33370e+00
176.000      7.03601e+00
177.000      7.69642e+00
178.000      8.31945e+00
179.000      8.91674e+00
180.000      9.50367e+00
181.000      1.00948e+01
182.000      1.06991e+01
183.000      1.13166e+01
184.000      1.19368e+01
185.000      1.25414e+01
186.000      1.31079e+01
187.000      1.36162e+01
188.000      1.40526e+01
189.000      1.44128e+01
190.000      1.47018e+01
191.000      1.49309e+01
192.000      1.51144e+01
193.000      1.52669e+01
194.000      1.54017e+01
195.000      1.55318e+01
196.000      1.56704e+01
197.000      1.58327e+01
198.000      1.60352e+01
199.000      1.62947e+01
200.000      1.66257e+01
201.000      1.70366e+01
202.000      1.75270e+01
203.000      1.80850e+01
204.000      1.86862e+01
205.000      1.92951e+01
206.000      1.98689e+01
207.000      2.03639e+01
208.000      2.07435e+01
209.000      2.09838e+01
210.000      2.10778e+01
211.000      2.10342e+01
212.000      2.08742e+01
213.000      2.06255e+01
214.000      2.03185e+01
215.000      1.99831e+01
216.000      1.96481e+01
217.000      1.93410e+01
218.000      1.90866e+01
219.000      1.89051e+01
220.000      1.88085e+01
221.000      1.88000e+01
222.000      1.88750e+01
223.000      1.90250e+01
224.000      1.92433e+01
225.000      1.95286e+01
226.000      1.98857e+01
227.000      2.03222e+01
228.000      2.08430e+01
229.000      2.14435e+01
230.000      2.21058e+01
231.000      2.27962e+01
232.000      2.34680e+01
233.000      2.40645e+01
234.000      2.45261e+01
235.000      2.47970e+01
236.000      2.48331e+01
237.000      2.46099e+01
238.000      2.41284e+01
239.000      2.34190e+01
240.000      2.25411e+01
241.000      2.15805e+01
242.000      2.06421e+01
243.000      1.98405e+01
244.000      1.92875e+01
245.000      1.90774e+01
246.000      1.92701e+01
247.000      1.98761e+01
248.000      2.08450e+01
249.000      2.20624e+01
250.000      2.33598e+01
251.000      2.45345e+01
252.000      2.53809e+01
253.000      2.57236e+01
254.000      2.54479e+01
255.000      2.45180e+01
256.000      2.29803e+01
257.000      2.09515e+01
258.000      1.85943e+01
259.000      1.60886e+01
260.000      1.36041e+01
261.000      1.12809e+01
262.000      9.21899e+00
263.000      7.47764e+00
264.000      6.08065e+00
265.000      5.02432e+00
266.000      4.28535e+00
267.000      3.82663e+00
268.000      3.60096e+00
269.000      3.55364e+00
270.000      3.62511e+00
271.000      3.75491e+00
272.000      3.88696e+00
273.000      3.97551e+00
274.000      3.99022e+00
275.000      3.91884e+00
276.000      3.76648e+00
277.000      3.55149e+00
278.000      3.29920e+00
279.000      3.03501e+00
280.000      2.77886e+00
281.000      2.54194e+00
282.000      2.32624e+00
283.000      2.12640e+00
284.000      1.93316e+00
285.000      1.73713e+00
286.000      1.53217e+00
287.000      1.31740e+00
288.000      1.09748e+00
289.000      8.81221e-01
290.000      6.79128e-01
291.000      5.00679e-01
292.000      3.52246e-01
293.000      2.36171e-01
294.000      1.51059e-01
295.000      9.29681e-02
296.000      5.69718e-02
297.000      3.86299e-02
298.000      3.50706e-02
299.000      4.55608e-02
300.000      7.15385e-02
301.000      1.16096e-01
302.000      1.82915e-01
303.000      2.74736e-01
304.000      3.91646e-01
305.000      5.29712e-01
306.000      6.80660e-01
307.000      8.33177e-01
308.000      9.75989e-01
309.000      1.10213e+00
310.000      1.21308e+00
311.000      1.32125e+00
312.000      1.44934e+00
313.000      1.62636e+00
314.000      1.88099e+00
315.000      2.23426e+00
316.000      2.69365e+00
317.000      3.25050e+00
318.000      3.88139e+00
319.000      4.55295e+00
320.000      5.22876e+00
321.000      5.87642e+00
322.000      6.47362e+00
323.000      7.01206e+00
324.000      7.49904e+00
325.000      7.95672e+00
326.000      8.41897e+00
327.000      8.92629e+00
328.000      9.51935e+00
329.000      1.02319e+01
330.000      1.10842e+01
331.000      1.20782e+01
332.000      1.31946e+01
333.000      1.43925e+01
334.000      1.56121e+01
335.000      1.67783e+01
336.000      1.78071e+01
337.000      1.86126e+01
338.000      1.91146e+01
339.000      1.92467e+01
340.000      1.89646e+01
341.000      1.82535e+01
342.000      1.71339e+01
343.000      1.56637e+01
344.000      1.39352e+01
345.000      1.20656e+01
346.000      1.01830e+01
347.000      8.40896e+00
348.000      6.84370e+00
349.000      5.55610e+00
350.000      4.58076e+00
351.000      3.92126e+00
352.000      3.55722e+00
353.000      3.45212e+00
354.000      3.55978e+00
355.000      3.82892e+00
356.000      4.20634e+00
357.000      4.63969e+00
358.000      5.08057e+00
359.000      5.48756e+00
360.000      5.82864e+00
361.000      6.08225e+00
362.000      6.23681e+00
363.000      6.28909e+00
364.000      6.24234e+00
365.000      6.10497e+00
366.000      5.88982e+00
367.000      5.61382e+00
368.000      5.29726e+00
369.000      4.96220e+00
370.000      4.62988e+00
371.000      4.31766e+00
372.000      4.03661e+00
373.000      3.79050e+00
374.000      3.57701e+00
375.000      3.39066e+00
376.000      3.22689e+00
377.000      3.08553e+00
378.000      2.97248e+00
379.000      2.89853e+00
380.000      2.87561e+00
381.000      2.91140e+00
382.000      3.00441e+00
383.000      3.14108e+00
384.000      3.29634e+00
385.000      3.43732e+00
386.000      3.52940e+00
387.000      3.54279e+00
388.000      3.45804e+00
389.000      3.26942e+00
390.000      2.98548e+00
391.000      2.62712e+00
392.000      2.22351e+00
393.000      1.80699e+00
394.000      1.40782e+00
395.000      1.04998e+00
396.000      7.48625e-01
397.000      5.09624e-01
398.000      3.30858e-01
399.000      2.04642e-01
400.000      1.20479e-01
401.000      6.74598e-02
402.000      3.58996e-02
403.000      1.81460e-02
404.000      8.70746e-03
405.000      3.96480e-03
406.000      1.71238e-03
407.000      7.01260e-04
408.000      2.72228e-04
409.000      1.00150e-04
410.000      3.49090e-05
411.000      1.15269e-05
412.000      3.60495e-06
413.000      1.06768e-06
414.000      2.99420e-07
415.000      7.95012e-08
416.000      1.99837e-08
417.000      4.75505e-09
418.000      1.07097e-09
419.000      2.28305e-10
420.000      4.60622e-11
421.000      8.79521e-12
422.000      1.58928e-12
423.000      2.71764e-13
424.000      4.39749e-14
425.000      6.73329e-15
426.000      9.75549e-16
427.000      1.33740e-16
428.000      1.73481e-17
429.000      2.12920e-18
430.000      2.47256e-19
431.000      2.71668e-20
432.000      2.82414e-21
433.000      2.77769e-22
434.000      2.58482e-23
435.000      2.27572e-24
436.000      1.89561e-25
437.000      1.49389e-26
438.000      1.11383e-27
439.000      7.85701e-29
440.000      5.24355e-30
441.000      3.31073e-31
442.000      1.97765e-32
443.000      1.11764e-33
444.000      5.97561e-35
445.000      3.02264e-36
446.000      1.44649e-37
447.000      6.54889e-39
448.000      2.80506e-40
449.000      1.13668e-41
450.000      4.35770e-43
451.000      1.58051e-44
452.000      5.42321e-46
453.000      1.76050e-47
454.000      5.40677e-49
455.000      1.57093e-50
456.000      4.31815e-52
457.000      1.12294e-53
458.000      2.76270e-55
459.000      6.43029e-57
460.000      1.41594e-58
461.000      2.94972e-60
462.000      5.81343e-62
463.000      1.08394e-63
464.000      1.91202e-65
465.000      3.19081e-67
466.000      5.03763e-69
467.000      7.52436e-71
468.000      1.06324e-72
469.000      1.42138e-74
470.000      1.79766e-76
471.000      2.15092e-78
472.000      2.43476e-80
473.000      2.60740e-82
474.000      2.64166e-84
475.000      2.53200e-86
476.000      2.29598e-88
477.000      1.96965e-90
478.000      1.59856e-92
479.000      1.22740e-94
480.000      8.91585e-97
481.000      6.12711e-99
482.000     3.98351e-101
483.000     2.45016e-103
484.000     1.42574e-105
485.000     7.84881e-108
486.000     4.08776e-110
487.000     2.01411e-112
488.000     9.38860e-115
489.000     4.14033e-117
490.000     1.72737e-119
491.000     6.81798e-122
492.000     2.54591e-124
493.000     8.99389e-127
494.000     3.00587e-129
495.000     9.50407e-132
496.000     2.84294e-134
497.000     8.04530e-137
498.000     2.15395e-139
499.000     5.45563e-142
500.000     1.30729e-144
