# Gaussian folded, width=10 cm^-1
# [cm^-1] arbitrary
0.000      3.00000e+00
1.000      2.91796e+00
2.000      2.68508e+00
3.000      2.33749e+00
4.000      1.92514e+00
5.000      1.50000e+00
6.000      1.10570e+00
7.000      7.71085e-01
8.000      5.08727e-01
9.000      3.17530e-01
10.000      1.87500e-01
11.000      1.04747e-01
12.000      5.53626e-02
13.000      2.76917e-02
14.000      1.31323e-02
15.000      5.97822e-03
16.000      2.82309e-03
17.000      1.92761e-03
18.000      2.78919e-03
19.000      6.03667e-03
20.000      1.37165e-02
21.000      3.00028e-02
22.000      6.23009e-02
23.000      1.22559e-01
24.000      2.28344e-01
25.000      4.02918e-01
26.000      6.73333e-01
27.000      1.06570e+00
28.000      1.59749e+00
29.000      2.26802e+00
30.000      3.04973e+00
31.000      3.88409e+00
32.000      4.68524e+00
33.000      5.35294e+00
34.000      5.79258e+00
35.000      5.93708e+00
36.000      5.76361e+00
37.000      5.29955e+00
38.000      4.61541e+00
39.000      3.80738e+00
40.000      2.97543e+00
41.000      2.20395e+00
42.000      1.55003e+00
43.000      1.04115e+00
44.000      6.80883e-01
45.000      4.58915e-01
46.000      3.61775e-01
47.000      3.81081e-01
48.000      5.17603e-01
49.000      7.80452e-01
50.000      1.18164e+00
51.000      1.72716e+00
52.000      2.40666e+00
53.000      3.18500e+00
54.000      3.99904e+00
55.000      4.76248e+00
56.000      5.37926e+00
57.000      5.76273e+00
58.000      5.85548e+00
59.000      5.64337e+00
60.000      5.15913e+00
61.000      4.47425e+00
62.000      3.68210e+00
63.000      2.87798e+00
64.000      2.14222e+00
65.000      1.53084e+00
66.000      1.07474e+00
67.000      7.85756e-01
68.000      6.65750e-01
69.000      7.14705e-01
70.000      9.34575e-01
71.000      1.32744e+00
72.000      1.88849e+00
73.000      2.59659e+00
74.000      3.40634e+00
75.000      4.24635e+00
76.000      5.02682e+00
77.000      5.65648e+00
78.000      6.06542e+00
79.000      6.22675e+00
80.000      6.16968e+00
81.000      5.97830e+00
82.000      5.77538e+00
83.000      5.69521e+00
84.000      5.85352e+00
85.000      6.32312e+00
86.000      7.12173e+00
87.000      8.21390e+00
88.000      9.52434e+00
89.000      1.09566e+01
90.000      1.24102e+01
91.000      1.37912e+01
92.000      1.50160e+01
93.000      1.60100e+01
94.000      1.67063e+01
95.000      1.70494e+01
96.000      1.70030e+01
97.000      1.65608e+01
98.000      1.57556e+01
99.000      1.46612e+01
100.000      1.33852e+01
101.000      1.20528e+01
102.000      1.07858e+01
103.000      9.68297e+00
104.000      8.80620e+00
105.000      8.17749e+00
106.000      7.78699e+00
107.000      7.60928e+00
108.000      7.62228e+00
109.000      7.82211e+00
110.000      8.22885e+00
111.000      8.88098e+00
112.000      9.82041e+00
113.000      1.10727e+01
114.000      1.26284e+01
115.000      1.44315e+01
116.000      1.63773e+01
117.000      1.83227e+01
118.000      2.01053e+01
119.000      2.15687e+01
120.000      2.25882e+01
121.000      2.30908e+01
122.000      2.30641e+01
123.000      2.25551e+01
124.000      2.16570e+01
125.000      2.04910e+01
126.000      1.91875e+01
127.000      1.78696e+01
128.000      1.66416e+01
129.000      1.55819e+01
130.000      1.47385e+01
131.000      1.41284e+01
132.000      1.37389e+01
133.000      1.35336e+01
134.000      1.34607e+01
135.000      1.34635e+01
136.000      1.34886e+01
137.000      1.34915e+01
138.000      1.34365e+01
139.000      1.32952e+01
140.000      1.30439e+01
141.000      1.26640e+01
142.000      1.21452e+01
143.000      1.14906e+01
144.000      1.07210e+01
145.000      9.87458e+00
146.000      9.00301e+00
147.000      8.16157e+00
148.000      7.39816e+00
149.000      6.74335e+00
150.000      6.20463e+00
151.000      5.76647e+00
152.000      5.39569e+00
153.000      5.05068e+00
154.000      4.69180e+00
155.000      4.29030e+00
156.000      3.83391e+00
157.000      3.32810e+00
158.000      2.79304e+00
159.000      2.25769e+00
160.000      1.75265e+00
161.000      1.30371e+00
162.000      9.27627e-01
163.000      6.30731e-01
164.000      4.10111e-01
165.000      2.56585e-01
166.000      1.58320e-01
167.000      1.04189e-01
168.000      8.62623e-02
169.000      1.01234e-01
170.000      1.50728e-01
171.000      2.40557e-01
172.000      3.78980e-01
173.000      5.74156e-01
174.000      8.31212e-01
175.000      1.14971e+00
176.000      1.52246e+00
177.000      1.93649e+00
178.000      2.37628e+00
179.000      2.82855e+00
180.000      3.28692e+00
181.000      3.75448e+00
182.000      4.24312e+00
183.000      4.76928e+00
184.000      5.34756e+00
185.000      5.98446e+00
186.000      6.67433e+00
187.000      7.39920e+00
188.000      8.13248e+00
189.000      8.84516e+00
190.000      9.51259e+00
191.000      1.01196e+01
192.000      1.06622e+01
193.000      1.11460e+01
194.000      1.15818e+01
195.000      1.19794e+01
196.000      1.23438e+01
197.000      1.26734e+01
198.000      1.29622e+01
199.000      1.32041e+01
200.000      1.33986e+01
201.000      1.35540e+01
202.000      1.36871e+01
203.000      1.38197e+01
204.000      1.39722e+01
205.000      1.41583e+01
206.000      1.43813e+01
207.000      1.46353e+01
208.000      1.49086e+01
209.000      1.51883e+01
210.000      1.54639e+01
211.000      1.57281e+01
212.000      1.59753e+01
213.000      1.61984e+01
214.000      1.63872e+01
215.000      1.65286e+01
216.000      1.66096e+01
217.000      1.66227e+01
218.000      1.65709e+01
219.000      1.64709e+01
220.000      1.63527e+01
221.000      1.62546e+01
222.000      1.62160e+01
223.000      1.62682e+01
224.000      1.64269e+01
225.000      1.66883e+01
226.000      1.70299e+01
227.000      1.74148e+01
228.000      1.77998e+01
229.000      1.81425e+01
230.000      1.84073e+01
231.000      1.85682e+01
232.000      1.86078e+01
233.000      1.85149e+01
234.000      1.82816e+01
235.000      1.79015e+01
236.000      1.73709e+01
237.000      1.66922e+01
238.000      1.58798e+01
239.000      1.49644e+01
240.000      1.39961e+01
241.000      1.30420e+01
242.000      1.21805e+01
243.000      1.14905e+01
244.000      1.10385e+01
245.000      1.08662e+01
246.000      1.09807e+01
247.000      1.13498e+01
248.000      1.19025e+01
249.000      1.25376e+01
250.000      1.31373e+01
251.000      1.35851e+01
252.000      1.37846e+01
253.000      1.36755e+01
254.000      1.32433e+01
255.000      1.25207e+01
256.000      1.15796e+01
257.000      1.05159e+01
258.000      9.43014e+00
259.000      8.40912e+00
260.000      7.51220e+00
261.000      6.76534e+00
262.000      6.16318e+00
263.000      5.67753e+00
264.000      5.26906e+00
265.000      4.89883e+00
266.000      4.53687e+00
267.000      4.16640e+00
268.000      3.78409e+00
269.000      3.39722e+00
270.000      3.01949e+00
271.000      2.66666e+00
272.000      2.35262e+00
273.000      2.08636e+00
274.000      1.86990e+00
275.000      1.69765e+00
276.000      1.55745e+00
277.000      1.43341e+00
278.000      1.30988e+00
279.000      1.17541e+00
280.000      1.02548e+00
281.000      8.62913e-01
282.000      6.96208e-01
283.000      5.36402e-01
284.000      3.93811e-01
285.000      2.75711e-01
286.000      1.85525e-01
287.000      1.23479e-01
288.000      8.81698e-02
289.000      7.84093e-02
290.000      9.47204e-02
291.000      1.40088e-01
292.000      2.19739e-01
293.000      3.39899e-01
294.000      5.05717e-01
295.000      7.18757e-01
296.000      9.74789e-01
297.000      1.26269e+00
298.000      1.56518e+00
299.000      1.86158e+00
300.000      2.13219e+00
301.000      2.36313e+00
302.000      2.55035e+00
303.000      2.70151e+00
304.000      2.83539e+00
305.000      2.97883e+00
306.000      3.16227e+00
307.000      3.41459e+00
308.000      3.75837e+00
309.000      4.20599e+00
310.000      4.75692e+00
311.000      5.39656e+00
312.000      6.09701e+00
313.000      6.81993e+00
314.000      7.52198e+00
315.000      8.16221e+00
316.000      8.71071e+00
317.000      9.15648e+00
318.000      9.51250e+00
319.000      9.81600e+00
320.000      1.01233e+01
321.000      1.05000e+01
322.000      1.10090e+01
323.000      1.16990e+01
324.000      1.25960e+01
325.000      1.36992e+01
326.000      1.49804e+01
327.000      1.63867e+01
328.000      1.78464e+01
329.000      1.92767e+01
330.000      2.05944e+01
331.000      2.17284e+01
332.000      2.26315e+01
333.000      2.32887e+01
334.000      2.37199e+01
335.000      2.39740e+01
336.000      2.41171e+01
337.000      2.42160e+01
338.000      2.43234e+01
339.000      2.44661e+01
340.000      2.46409e+01
341.000      2.48172e+01
342.000      2.49451e+01
343.000      2.49666e+01
344.000      2.48270e+01
345.000      2.44843e+01
346.000      2.39155e+01
347.000      2.31191e+01
348.000      2.21141e+01
349.000      2.09375e+01
350.000      1.96398e+01
351.000      1.82800e+01
352.000      1.69200e+01
353.000      1.56195e+01
354.000      1.44302e+01
355.000      1.33906e+01
356.000      1.25223e+01
357.000      1.18284e+01
358.000      1.12953e+01
359.000      1.08961e+01
360.000      1.05969e+01
361.000      1.03613e+01
362.000      1.01547e+01
363.000      9.94534e+00
364.000      9.70466e+00
365.000      9.40678e+00
366.000      9.02934e+00
367.000      8.55614e+00
368.000      7.98134e+00
369.000      7.31376e+00
370.000      6.57952e+00
371.000      5.82125e+00
372.000      5.09306e+00
373.000      4.45234e+00
374.000      3.95010e+00
375.000      3.62305e+00
376.000      3.48925e+00
377.000      3.54853e+00
378.000      3.78672e+00
379.000      4.18158e+00
380.000      4.70774e+00
381.000      5.33893e+00
382.000      6.04686e+00
383.000      6.79814e+00
384.000      7.55126e+00
385.000      8.25599e+00
386.000      8.85647e+00
387.000      9.29759e+00
388.000      9.53323e+00
389.000      9.53398e+00
390.000      9.29245e+00
391.000      8.82468e+00
392.000      8.16770e+00
393.000      7.37353e+00
394.000      6.50107e+00
395.000      5.60748e+00
396.000      4.74091e+00
397.000      3.93595e+00
398.000      3.21261e+00
399.000      2.57842e+00
400.000      2.03241e+00
401.000      1.56926e+00
402.000      1.18248e+00
403.000      8.65799e-01
404.000      6.13219e-01
405.000      4.18368e-01
406.000      2.73925e-01
407.000      1.71585e-01
408.000      1.02567e-01
409.000      5.83908e-02
410.000      3.16095e-02
411.000      1.62521e-02
412.000      7.92900e-03
413.000      3.66813e-03
414.000      1.60826e-03
415.000      6.68001e-04
416.000      2.62768e-04
417.000      9.78679e-05
418.000      3.45064e-05
419.000      1.15158e-05
420.000      3.63722e-06
421.000      1.08716e-06
422.000      3.07496e-07
423.000      8.22969e-08
424.000      2.08405e-08
425.000      4.99344e-09
426.000      1.13201e-09
427.000      2.42799e-10
428.000      4.92704e-11
429.000      9.45938e-12
430.000      1.71819e-12
431.000      2.95265e-13
432.000      4.80041e-14
433.000      7.38363e-15
434.000      1.07445e-15
435.000      1.47919e-16
436.000      1.92656e-17
437.000      2.37390e-18
438.000      2.76734e-19
439.000      3.05199e-20
440.000      3.18436e-21
441.000      3.14325e-22
442.000      2.93532e-23
443.000      2.59328e-24
444.000      2.16752e-25
445.000      1.71393e-26
446.000      1.28216e-27
447.000      9.07421e-29
448.000      6.07566e-30
449.000      3.84854e-31
450.000      2.30630e-32
451.000      1.30754e-33
452.000      7.01309e-35
453.000      3.55863e-36
454.000      1.70834e-37
455.000      7.75857e-39
456.000      3.33356e-40
457.000      1.35504e-41
458.000      5.21091e-43
459.000      1.89580e-44
460.000      6.52513e-46
461.000      2.12473e-47
462.000      6.54539e-49
463.000      1.90759e-50
464.000      5.25959e-52
465.000      1.37194e-53
466.000      3.38562e-55
467.000      7.90421e-57
468.000      1.74581e-58
469.000      3.64797e-60
470.000      7.21147e-62
471.000      1.34870e-63
472.000      2.38629e-65
473.000      3.99437e-67
474.000      6.32544e-69
475.000      9.47658e-71
476.000      1.34317e-72
477.000      1.80105e-74
478.000      2.28475e-76
479.000      2.74202e-78
480.000      3.11329e-80
481.000      3.34415e-82
482.000      3.39836e-84
483.000      3.26717e-86
484.000      2.97160e-88
485.000      2.55698e-90
486.000      2.08152e-92
487.000      1.60307e-94
488.000      1.16800e-96
489.000      8.05100e-99
490.000     5.25019e-101
491.000     3.23905e-103
492.000     1.89050e-105
493.000     1.04389e-107
494.000     5.45318e-110
495.000     2.69502e-112
496.000     1.26006e-114
497.000     5.57366e-117
498.000     2.33242e-119
499.000     9.23399e-122
500.000     3.45852e-124
