# Gaussian folded, width=10 cm^-1
# [cm^-1] arbitrary
0.000      3.00000e+00
1.000      2.91796e+00
2.000      2.68508e+00
3.000      2.33749e+00
4.000      1.92514e+00
5.000      1.50000e+00
6.000      1.10570e+00
7.000      7.71085e-01
8.000      5.08727e-01
9.000      3.17529e-01
10.000      1.87500e-01
11.000      1.04746e-01
12.000      5.53594e-02
13.000      2.76809e-02
14.000      1.30982e-02
15.000      5.87601e-03
16.000      2.53335e-03
17.000      1.15144e-03
18.000      8.24479e-04
19.000      1.33898e-03
20.000      3.11012e-03
21.000      7.40037e-03
22.000      1.68622e-02
23.000      3.64410e-02
24.000      7.45988e-02
25.000      1.44635e-01
26.000      2.65593e-01
27.000      4.61923e-01
28.000      7.60922e-01
29.000      1.18724e+00
30.000      1.75456e+00
31.000      2.45606e+00
32.000      3.25656e+00
33.000      4.09005e+00
34.000      4.86581e+00
35.000      5.48328e+00
36.000      5.85311e+00
37.000      5.91828e+00
38.000      5.66848e+00
39.000      5.14279e+00
40.000      4.41969e+00
41.000      3.59787e+00
42.000      2.77438e+00
43.000      2.02670e+00
44.000      1.40304e+00
45.000      9.21732e-01
46.000      5.77670e-01
47.000      3.52177e-01
48.000      2.22978e-01
49.000      1.72062e-01
50.000      1.90605e-01
51.000      2.80911e-01
52.000      4.55591e-01
53.000      7.34045e-01
54.000      1.13622e+00
55.000      1.67410e+00
56.000      2.34225e+00
57.000      3.10997e+00
58.000      3.91826e+00
59.000      4.68417e+00
60.000      5.31342e+00
61.000      5.71896e+00
62.000      5.84058e+00
63.000      5.65962e+00
64.000      5.20365e+00
65.000      4.53978e+00
66.000      3.75881e+00
67.000      2.95556e+00
68.000      2.21162e+00
69.000      1.58495e+00
70.000      1.10800e+00
71.000      7.92877e-01
72.000      6.40135e-01
73.000      6.47303e-01
74.000      8.13888e-01
75.000      1.14123e+00
76.000      1.62730e+00
77.000      2.25839e+00
78.000      3.00085e+00
79.000      3.79685e+00
80.000      4.56733e+00
81.000      5.22325e+00
82.000      5.68369e+00
83.000      5.89594e+00
84.000      5.85193e+00
85.000      5.59527e+00
86.000      5.21628e+00
87.000      4.83573e+00
88.000      4.58147e+00
89.000      4.56374e+00
90.000      4.85527e+00
91.000      5.48018e+00
92.000      6.41373e+00
93.000      7.59165e+00
94.000      8.92577e+00
95.000      1.03211e+01
96.000      1.16893e+01
97.000      1.29565e+01
98.000      1.40633e+01
99.000      1.49616e+01
100.000      1.56103e+01
101.000      1.59737e+01
102.000      1.60234e+01
103.000      1.57450e+01
104.000      1.51437e+01
105.000      1.42501e+01
106.000      1.31220e+01
107.000      1.18412e+01
108.000      1.05064e+01
109.000      9.22160e+00
110.000      8.08257e+00
111.000      7.16457e+00
112.000      6.51395e+00
113.000      6.14655e+00
114.000      6.05356e+00
115.000      6.21272e+00
116.000      6.60108e+00
117.000      7.20454e+00
118.000      8.02084e+00
119.000      9.05489e+00
120.000      1.03085e+01
121.000      1.17684e+01
122.000      1.33970e+01
123.000      1.51295e+01
124.000      1.68779e+01
125.000      1.85413e+01
126.000      2.00187e+01
127.000      2.12218e+01
128.000      2.20836e+01
129.000      2.25626e+01
130.000      2.26418e+01
131.000      2.23262e+01
132.000      2.16389e+01
133.000      2.06192e+01
134.000      1.93232e+01
135.000      1.78242e+01
136.000      1.62124e+01
137.000      1.45905e+01
138.000      1.30654e+01
139.000      1.17367e+01
140.000      1.06844e+01
141.000      9.95859e+00
142.000      9.57338e+00
143.000      9.50702e+00
144.000      9.70691e+00
145.000      1.00987e+01
146.000      1.05973e+01
147.000      1.11179e+01
148.000      1.15848e+01
149.000      1.19381e+01
150.000      1.21374e+01
151.000      1.21622e+01
152.000      1.20106e+01
153.000      1.16963e+01
154.000      1.12439e+01
155.000      1.06853e+01
156.000      1.00551e+01
157.000      9.38764e+00
158.000      8.71368e+00
159.000      8.05789e+00
160.000      7.43635e+00
161.000      6.85499e+00
162.000      6.30946e+00
163.000      5.78700e+00
164.000      5.27039e+00
165.000      4.74324e+00
166.000      4.19529e+00
167.000      3.62625e+00
168.000      3.04679e+00
169.000      2.47659e+00
170.000      1.93969e+00
171.000      1.45907e+00
172.000      1.05184e+00
173.000      7.26554e-01
174.000      4.83189e-01
175.000      3.15217e-01
176.000      2.12894e-01
177.000      1.66510e-01
178.000      1.68700e-01
179.000      2.15347e-01
180.000      3.05112e-01
181.000      4.38019e-01
182.000      6.13721e-01
183.000      8.30134e-01
184.000      1.08287e+00
185.000      1.36558e+00
186.000      1.67083e+00
187.000      1.99096e+00
188.000      2.31852e+00
189.000      2.64617e+00
190.000      2.96656e+00
191.000      3.27279e+00
192.000      3.55996e+00
193.000      3.82721e+00
194.000      4.07970e+00
195.000      4.32891e+00
196.000      4.59086e+00
197.000      4.88224e+00
198.000      5.21567e+00
199.000      5.59580e+00
200.000      6.01782e+00
201.000      6.46900e+00
202.000      6.93293e+00
203.000      7.39456e+00
204.000      7.84417e+00
205.000      8.27847e+00
206.000      8.69823e+00
207.000      9.10333e+00
208.000      9.48758e+00
209.000      9.83548e+00
210.000      1.01229e+01
211.000      1.03222e+01
212.000      1.04097e+01
213.000      1.03740e+01
214.000      1.02218e+01
215.000      9.97973e+00
216.000      9.69049e+00
217.000      9.40543e+00
218.000      9.17411e+00
219.000      9.03385e+00
220.000      9.00188e+00
221.000      9.07186e+00
222.000      9.21623e+00
223.000      9.39379e+00
224.000      9.56063e+00
225.000      9.68158e+00
226.000      9.73872e+00
227.000      9.73448e+00
228.000      9.68866e+00
229.000      9.63021e+00
230.000      9.58671e+00
231.000      9.57492e+00
232.000      9.59512e+00
233.000      9.63095e+00
234.000      9.65418e+00
235.000      9.63282e+00
236.000      9.53990e+00
237.000      9.36058e+00
238.000      9.09596e+00
239.000      8.76302e+00
240.000      8.39106e+00
241.000      8.01569e+00
242.000      7.67198e+00
243.000      7.38829e+00
244.000      7.18191e+00
245.000      7.05709e+00
246.000      7.00515e+00
247.000      7.00626e+00
248.000      7.03216e+00
249.000      7.04967e+00
250.000      7.02483e+00
251.000      6.92763e+00
252.000      6.73679e+00
253.000      6.44377e+00
254.000      6.05480e+00
255.000      5.59008e+00
256.000      5.08009e+00
257.000      4.55956e+00
258.000      4.06059e+00
259.000      3.60665e+00
260.000      3.20906e+00
261.000      2.86660e+00
262.000      2.56823e+00
263.000      2.29782e+00
264.000      2.03951e+00
265.000      1.78209e+00
266.000      1.52149e+00
267.000      1.26087e+00
268.000      1.00868e+00
269.000      7.75581e-01
270.000      5.71223e-01
271.000      4.01921e-01
272.000      2.69617e-01
273.000      1.72177e-01
274.000      1.04592e-01
275.000      6.05231e-02
276.000      3.37001e-02
277.000      1.89131e-02
278.000      1.25696e-02
279.000      1.29446e-02
280.000      2.03058e-02
281.000      3.70413e-02
282.000      6.78127e-02
283.000      1.19639e-01
284.000      2.01733e-01
285.000      3.24887e-01
286.000      5.00303e-01
287.000      7.37896e-01
288.000      1.04429e+00
289.000      1.42095e+00
290.000      1.86277e+00
291.000      2.35766e+00
292.000      2.88720e+00
293.000      3.42852e+00
294.000      3.95715e+00
295.000      4.45051e+00
296.000      4.89164e+00
297.000      5.27228e+00
298.000      5.59484e+00
299.000      5.87236e+00
300.000      6.12640e+00
301.000      6.38271e+00
302.000      6.66575e+00
303.000      6.99301e+00
304.000      7.37091e+00
305.000      7.79324e+00
306.000      8.24291e+00
307.000      8.69627e+00
308.000      9.12896e+00
309.000      9.52130e+00
310.000      9.86209e+00
311.000      1.01500e+01
312.000      1.03929e+01
313.000      1.06058e+01
314.000      1.08084e+01
315.000      1.10232e+01
316.000      1.12736e+01
317.000      1.15829e+01
318.000      1.19731e+01
319.000      1.24645e+01
320.000      1.30749e+01
321.000      1.38210e+01
322.000      1.47189e+01
323.000      1.57851e+01
324.000      1.70366e+01
325.000      1.84879e+01
326.000      2.01461e+01
327.000      2.20031e+01
328.000      2.40282e+01
329.000      2.61626e+01
330.000      2.83182e+01
331.000      3.03831e+01
332.000      3.22340e+01
333.000      3.37535e+01
334.000      3.48493e+01
335.000      3.54709e+01
336.000      3.56207e+01
337.000      3.53553e+01
338.000      3.47773e+01
339.000      3.40184e+01
340.000      3.32166e+01
341.000      3.24931e+01
342.000      3.19312e+01
343.000      3.15635e+01
344.000      3.13688e+01
345.000      3.12799e+01
346.000      3.11995e+01
347.000      3.10218e+01
348.000      3.06532e+01
349.000      3.00290e+01
350.000      2.91210e+01
351.000      2.79369e+01
352.000      2.65128e+01
353.000      2.49020e+01
354.000      2.31647e+01
355.000      2.13600e+01
356.000      1.95428e+01
357.000      1.77632e+01
358.000      1.60673e+01
359.000      1.44983e+01
360.000      1.30950e+01
361.000      1.18881e+01
362.000      1.08960e+01
363.000      1.01196e+01
364.000      9.53941e+00
365.000      9.11566e+00
366.000      8.79238e+00
367.000      8.50496e+00
368.000      8.19018e+00
369.000      7.79665e+00
370.000      7.29364e+00
371.000      6.67656e+00
372.000      5.96821e+00
373.000      5.21587e+00
374.000      4.48503e+00
375.000      3.85109e+00
376.000      3.39047e+00
377.000      3.17229e+00
378.000      3.25111e+00
379.000      3.66094e+00
380.000      4.41067e+00
381.000      5.48104e+00
382.000      6.82407e+00
383.000      8.36589e+00
384.000      1.00137e+01
385.000      1.16667e+01
386.000      1.32282e+01
387.000      1.46171e+01
388.000      1.57742e+01
389.000      1.66622e+01
390.000      1.72598e+01
391.000      1.75529e+01
392.000      1.75288e+01
393.000      1.71745e+01
394.000      1.64821e+01
395.000      1.54585e+01
396.000      1.41341e+01
397.000      1.25676e+01
398.000      1.08441e+01
399.000      9.06541e+00
400.000      7.33653e+00
401.000      5.75125e+00
402.000      4.38072e+00
403.000      3.26683e+00
404.000      2.42113e+00
405.000      1.82812e+00
406.000      1.45152e+00
407.000      1.24189e+00
408.000      1.14456e+00
409.000      1.10705e+00
410.000      1.08529e+00
411.000      1.04804e+00
412.000      9.78744e-01
413.000      8.74757e-01
414.000      7.44068e-01
415.000      6.00604e-01
416.000      4.59376e-01
417.000      3.32676e-01
418.000      2.28022e-01
419.000      1.47893e-01
420.000      9.07583e-02
421.000      5.26950e-02
422.000      2.89457e-02
423.000      1.50426e-02
424.000      7.39580e-03
425.000      3.44006e-03
426.000      1.51379e-03
427.000      6.30209e-04
428.000      2.48211e-04
429.000      9.24858e-05
430.000      3.26022e-05
431.000      1.08727e-05
432.000      3.43039e-06
433.000      1.02392e-06
434.000      2.89141e-07
435.000      7.72448e-08
436.000      1.95230e-08
437.000      4.66812e-09
438.000      1.05598e-09
439.000      2.25988e-10
440.000      4.57543e-11
441.000      8.76390e-12
442.000      1.58811e-12
443.000      2.72258e-13
444.000      4.41570e-14
445.000      6.77540e-15
446.000      9.83532e-16
447.000      1.35070e-16
448.000      1.75488e-17
449.000      2.15702e-18
450.000      2.50829e-19
451.000      2.75943e-20
452.000      2.87196e-21
453.000      2.82784e-22
454.000      2.63420e-23
455.000      2.32146e-24
456.000      1.93549e-25
457.000      1.52664e-26
458.000      1.13921e-27
459.000      8.04237e-29
460.000      5.37136e-30
461.000      3.39392e-31
462.000      2.02879e-32
463.000      1.14733e-33
464.000      6.13845e-35
465.000      3.10704e-36
466.000      1.48783e-37
467.000      6.74024e-39
468.000      2.88879e-40
469.000      1.17132e-41
470.000      4.49314e-43
471.000      1.63058e-44
472.000      5.59827e-46
473.000      1.81837e-47
474.000      5.58765e-49
475.000      1.62440e-50
476.000      4.46760e-52
477.000      1.16245e-53
478.000      2.86147e-55
479.000      6.66383e-57
480.000      1.46817e-58
481.000      3.06017e-60
482.000      6.03437e-62
483.000      1.12574e-63
484.000      1.98682e-65
485.000      3.31741e-67
486.000      5.24030e-69
487.000      7.83125e-71
488.000      1.10719e-72
489.000      1.48093e-74
490.000      1.87397e-76
491.000      2.24340e-78
492.000      2.54080e-80
493.000      2.72239e-82
494.000      2.75962e-84
495.000      2.64646e-86
496.000      2.40103e-88
497.000      2.06086e-90
498.000      1.67347e-92
499.000      1.28559e-94
500.000      9.34346e-97
