# Gaussian folded, width=10 cm^-1
# [cm^-1] arbitrary
0.000      3.00000e+00
1.000      2.91796e+00
2.000      2.68508e+00
3.000      2.33749e+00
4.000      1.92514e+00
5.000      1.50000e+00
6.000      1.10570e+00
7.000      7.71085e-01
8.000      5.08727e-01
9.000      3.17530e-01
10.000      1.87502e-01
11.000      1.04752e-01
12.000      5.53809e-02
13.000      2.77481e-02
14.000      1.32971e-02
15.000      6.43324e-03
16.000      4.00941e-03
17.000      4.84852e-03
18.000      9.57847e-03
19.000      2.09283e-02
20.000      4.45243e-02
21.000      9.00802e-02
22.000      1.72649e-01
23.000      3.13281e-01
24.000      5.38145e-01
25.000      8.75096e-01
26.000      1.34710e+00
27.000      1.96307e+00
28.000      2.70809e+00
29.000      3.53653e+00
30.000      4.37203e+00
31.000      5.11655e+00
32.000      5.66839e+00
33.000      5.94469e+00
34.000      5.90184e+00
35.000      5.54672e+00
36.000      4.93505e+00
37.000      4.15721e+00
38.000      3.31689e+00
39.000      2.50950e+00
40.000      1.80705e+00
41.000      1.25251e+00
42.000      8.63325e-01
43.000      6.40691e-01
44.000      5.80130e-01
45.000      6.79259e-01
46.000      9.40197e-01
47.000      1.36591e+00
48.000      1.95172e+00
49.000      2.67497e+00
50.000      3.48694e+00
51.000      4.31131e+00
52.000      5.05170e+00
53.000      5.60809e+00
54.000      5.89804e+00
55.000      5.87639e+00
56.000      5.54664e+00
57.000      4.96018e+00
58.000      4.20345e+00
59.000      3.37780e+00
60.000      2.57879e+00
61.000      1.88111e+00
62.000      1.33250e+00
63.000      9.56379e-01
64.000      7.60003e-01
65.000      7.43611e-01
66.000      9.06580e-01
67.000      1.24817e+00
68.000      1.76276e+00
69.000      2.43169e+00
70.000      3.21565e+00
71.000      4.05198e+00
72.000      4.86040e+00
73.000      5.55758e+00
74.000      6.07784e+00
75.000      6.39342e+00
76.000      6.52705e+00
77.000      6.55128e+00
78.000      6.57333e+00
79.000      6.70981e+00
80.000      7.05926e+00
81.000      7.68141e+00
82.000      8.58874e+00
83.000      9.75087e+00
84.000      1.11070e+01
85.000      1.25789e+01
86.000      1.40796e+01
87.000      1.55147e+01
88.000      1.67817e+01
89.000      1.77723e+01
90.000      1.83832e+01
91.000      1.85347e+01
92.000      1.81927e+01
93.000      1.73845e+01
94.000      1.62004e+01
95.000      1.47797e+01
96.000      1.32829e+01
97.000      1.18610e+01
98.000      1.06309e+01
99.000      9.66405e+00
100.000      8.99024e+00
101.000      8.61184e+00
102.000      8.52052e+00
103.000      8.70943e+00
104.000      9.17692e+00
105.000      9.92256e+00
106.000      1.09391e+01
107.000      1.22052e+01
108.000      1.36806e+01
109.000      1.53054e+01
110.000      1.70008e+01
111.000      1.86711e+01
112.000      2.02074e+01
113.000      2.14959e+01
114.000      2.24307e+01
115.000      2.29334e+01
116.000      2.29720e+01
117.000      2.25756e+01
118.000      2.18365e+01
119.000      2.08968e+01
120.000      1.99208e+01
121.000      1.90603e+01
122.000      1.84216e+01
123.000      1.80449e+01
124.000      1.79001e+01
125.000      1.79012e+01
126.000      1.79316e+01
127.000      1.78741e+01
128.000      1.76358e+01
129.000      1.71631e+01
130.000      1.64448e+01
131.000      1.55048e+01
132.000      1.43908e+01
133.000      1.31616e+01
134.000      1.18779e+01
135.000      1.05960e+01
136.000      9.36612e+00
137.000      8.23076e+00
138.000      7.22374e+00
139.000      6.36789e+00
140.000      5.67196e+00
141.000      5.12791e+00
142.000      4.71027e+00
143.000      4.37912e+00
144.000      4.08704e+00
145.000      3.78877e+00
146.000      3.45100e+00
147.000      3.05925e+00
148.000      2.61946e+00
149.000      2.15412e+00
150.000      1.69439e+00
151.000      1.27112e+00
152.000      9.07640e-01
153.000      6.16014e-01
154.000      3.97046e-01
155.000      2.43006e-01
156.000      1.41542e-01
157.000      7.93807e-02
158.000      4.50485e-02
159.000      3.04343e-02
160.000      3.14804e-02
161.000      4.83954e-02
162.000      8.56820e-02
163.000      1.52031e-01
164.000      2.59904e-01
165.000      4.24509e-01
166.000      6.61933e-01
167.000      9.86459e-01
168.000      1.40742e+00
169.000      1.92631e+00
170.000      2.53491e+00
171.000      3.21514e+00
172.000      3.94088e+00
173.000      4.68153e+00
174.000      5.40682e+00
175.000      6.09213e+00
176.000      6.72318e+00
177.000      7.29941e+00
178.000      7.83477e+00
179.000      8.35550e+00
180.000      8.89484e+00
181.000      9.48556e+00
182.000      1.01521e+01
183.000      1.09045e+01
184.000      1.17348e+01
185.000      1.26182e+01
186.000      1.35165e+01
187.000      1.43836e+01
188.000      1.51718e+01
189.000      1.58371e+01
190.000      1.63438e+01
191.000      1.66696e+01
192.000      1.68093e+01
193.000      1.67782e+01
194.000      1.66141e+01
195.000      1.63739e+01
196.000      1.61284e+01
197.000      1.59514e+01
198.000      1.59091e+01
199.000      1.60506e+01
200.000      1.64012e+01
201.000      1.69608e+01
202.000      1.77055e+01
203.000      1.85909e+01
204.000      1.95564e+01
205.000      2.05288e+01
206.000      2.14267e+01
207.000      2.21672e+01
208.000      2.26743e+01
209.000      2.28903e+01
210.000      2.27864e+01
211.000      2.23699e+01
212.000      2.16855e+01
213.000      2.08091e+01
214.000      1.98358e+01
215.000      1.88668e+01
216.000      1.79957e+01
217.000      1.72996e+01
218.000      1.68327e+01
219.000      1.66238e+01
220.000      1.66745e+01
221.000      1.69607e+01
222.000      1.74366e+01
223.000      1.80424e+01
224.000      1.87155e+01
225.000      1.94023e+01
226.000      2.00667e+01
227.000      2.06942e+01
228.000      2.12886e+01
229.000      2.18628e+01
230.000      2.24277e+01
231.000      2.29817e+01
232.000      2.35042e+01
233.000      2.39555e+01
234.000      2.42822e+01
235.000      2.44277e+01
236.000      2.43452e+01
237.000      2.40093e+01
238.000      2.34240e+01
239.000      2.26258e+01
240.000      2.16805e+01
241.000      2.06771e+01
242.000      1.97184e+01
243.000      1.89127e+01
244.000      1.83634e+01
245.000      1.81590e+01
246.000      1.83599e+01
247.000      1.89842e+01
248.000      1.99938e+01
249.000      2.12870e+01
250.000      2.27015e+01
251.000      2.40310e+01
252.000      2.50552e+01
253.000      2.55780e+01
254.000      2.54629e+01
255.000      2.46591e+01
256.000      2.32082e+01
257.000      2.12317e+01
258.000      1.89044e+01
259.000      1.64194e+01
260.000      1.39576e+01
261.000      1.16655e+01
262.000      9.64464e+00
263.000      7.95170e+00
264.000      6.60373e+00
265.000      5.58656e+00
266.000      4.86346e+00
267.000      4.38365e+00
268.000      4.09047e+00
269.000      3.92901e+00
270.000      3.85203e+00
271.000      3.82327e+00
272.000      3.81751e+00
273.000      3.81804e+00
274.000      3.81289e+00
275.000      3.79161e+00
276.000      3.74394e+00
277.000      3.66058e+00
278.000      3.53522e+00
279.000      3.36643e+00
280.000      3.15831e+00
281.000      2.91925e+00
282.000      2.65940e+00
283.000      2.38811e+00
284.000      2.11227e+00
285.000      1.83642e+00
286.000      1.56399e+00
287.000      1.29903e+00
288.000      1.04715e+00
289.000      8.15286e-01
290.000      6.10422e-01
291.000      4.37880e-01
292.000      3.00037e-01
293.000      1.95915e-01
294.000      1.21700e-01
295.000      7.18635e-02
296.000      4.04134e-02
297.000      2.19266e-02
298.000      1.21872e-02
299.000      8.47420e-03
300.000      9.64299e-03
301.000      1.61539e-02
302.000      3.01352e-02
303.000      5.54592e-02
304.000      9.77031e-02
305.000      1.63799e-01
306.000      2.61191e-01
307.000      3.96456e-01
308.000      5.73552e-01
309.000      7.92161e-01
310.000      1.04672e+00
311.000      1.32675e+00
312.000      1.61869e+00
313.000      1.90897e+00
314.000      2.18753e+00
315.000      2.45063e+00
316.000      2.70199e+00
317.000      2.95177e+00
318.000      3.21380e+00
319.000      3.50200e+00
320.000      3.82726e+00
321.000      4.19602e+00
322.000      4.61102e+00
323.000      5.07389e+00
324.000      5.58898e+00
325.000      6.16687e+00
326.000      6.82654e+00
327.000      7.59498e+00
328.000      8.50362e+00
329.000      9.58138e+00
330.000      1.08452e+01
331.000      1.22898e+01
332.000      1.38793e+01
333.000      1.55438e+01
334.000      1.71829e+01
335.000      1.86763e+01
336.000      1.99003e+01
337.000      2.07459e+01
338.000      2.11343e+01
339.000      2.10272e+01
340.000      2.04293e+01
341.000      1.93842e+01
342.000      1.79659e+01
343.000      1.62681e+01
344.000      1.43932e+01
345.000      1.24439e+01
346.000      1.05157e+01
347.000      8.69217e+00
348.000      7.04239e+00
349.000      5.62005e+00
350.000      4.46429e+00
351.000      3.60098e+00
352.000      3.04361e+00
353.000      2.79305e+00
354.000      2.83584e+00
355.000      3.14185e+00
356.000      3.66256e+00
357.000      4.33160e+00
358.000      5.06891e+00
359.000      5.78876e+00
360.000      6.41073e+00
361.000      6.87130e+00
362.000      7.13336e+00
363.000      7.19101e+00
364.000      7.06817e+00
365.000      6.81148e+00
366.000      6.47900e+00
367.000      6.12779e+00
368.000      5.80310e+00
369.000      5.53147e+00
370.000      5.31868e+00
371.000      5.15242e+00
372.000      5.00837e+00
373.000      4.85817e+00
374.000      4.67727e+00
375.000      4.45123e+00
376.000      4.17924e+00
377.000      3.87417e+00
378.000      3.55936e+00
379.000      3.26307e+00
380.000      3.01189e+00
381.000      2.82467e+00
382.000      2.70843e+00
383.000      2.65661e+00
384.000      2.65010e+00
385.000      2.66057e+00
386.000      2.65576e+00
387.000      2.60578e+00
388.000      2.48932e+00
389.000      2.29826e+00
390.000      2.03929e+00
391.000      1.73196e+00
392.000      1.40369e+00
393.000      1.08324e+00
394.000      7.94676e-01
395.000      5.53544e-01
396.000      3.65788e-01
397.000      2.29160e-01
398.000      1.36042e-01
399.000      7.65034e-02
400.000      4.07423e-02
401.000      2.05439e-02
402.000      9.80692e-03
403.000      4.43147e-03
404.000      1.89537e-03
405.000      7.67265e-04
406.000      2.93957e-04
407.000      1.06584e-04
408.000      3.65734e-05
409.000      1.18765e-05
410.000      3.64972e-06
411.000      1.06138e-06
412.000      2.92091e-07
413.000      7.60675e-08
414.000      1.87461e-08
415.000      4.37168e-09
416.000      9.64742e-10
417.000      2.01464e-10
418.000      3.98111e-11
419.000      7.44440e-12
420.000      1.31726e-12
421.000      2.20562e-13
422.000      3.49463e-14
423.000      5.23942e-15
424.000      7.43319e-16
425.000      9.97873e-17
426.000      1.26760e-17
427.000      1.52367e-18
428.000      1.73303e-19
429.000      1.86518e-20
430.000      1.89947e-21
431.000      1.83039e-22
432.000      1.66898e-23
433.000      1.43997e-24
434.000      1.17556e-25
435.000      9.08093e-27
436.000      6.63749e-28
437.000      4.59055e-29
438.000      3.00408e-30
439.000      1.86012e-31
440.000      1.08982e-32
441.000      6.04157e-34
442.000      3.16901e-35
443.000      1.57281e-36
444.000      7.38591e-38
445.000      3.28176e-39
446.000      1.37970e-40
447.000      5.48823e-42
448.000      2.06563e-43
449.000      7.35598e-45
450.000      2.47854e-46
451.000      7.90168e-48
452.000      2.38346e-49
453.000      6.80236e-51
454.000      1.83685e-52
455.000      4.69299e-54
456.000      1.13445e-55
457.000      2.59466e-57
458.000      5.61480e-59
459.000      1.14959e-60
460.000      2.22694e-62
461.000      4.08158e-64
462.000      7.07784e-66
463.000      1.16125e-67
464.000      1.80261e-69
465.000      2.64746e-71
466.000      3.67880e-73
467.000      4.83649e-75
468.000      6.01593e-77
469.000      7.07981e-79
470.000      7.88291e-81
471.000      8.30416e-83
472.000      8.27655e-85
473.000      7.80452e-87
474.000      6.96283e-89
475.000      5.87715e-91
476.000      4.69341e-93
477.000      3.54610e-95
478.000      2.53485e-97
479.000      1.71433e-99
480.000     1.09691e-101
481.000     6.64033e-104
482.000     3.80315e-106
483.000     2.06079e-108
484.000     1.05647e-110
485.000     5.12412e-113
486.000     2.35134e-115
487.000     1.02081e-117
488.000     4.19283e-120
489.000     1.62931e-122
490.000     5.99007e-125
491.000     2.08350e-127
492.000     6.85623e-130
493.000     2.13456e-132
494.000     6.28728e-135
495.000     1.75205e-137
496.000     4.61915e-140
497.000     1.15214e-142
498.000     2.71881e-145
499.000     6.06989e-148
500.000     1.28207e-150
